# OpenSignals Text File Format. Version 1
# {"00:21:08:35:16:D4": {"position": 0, "device": "bitalino_rev", "device name": "00:21:08:35:16:D4", "device connection": "BTH00:21:08:35:16:D4", "sampling rate": 100, "resolution": [4, 1, 1, 1, 1, 10, 10, 10, 10, 6, 6], "firmware version": 1282, "comments": "", "keywords": "", "mode": 0, "sync interval": 2, "date": "2024-11-15", "time": "12:2:39.272", "channels": [1, 2, 3, 4, 5, 6], "sensor": ["RAW", "RAW", "RAW", "RAW", "RAW", "RAW"], "label": ["A1", "A2", "A3", "A4", "A5", "A6"], "column": ["nSeq", "I1", "I2", "O1", "O2", "A1", "A2", "A3", "A4", "A5", "A6"], "special": [{}, {}, {}, {}, {}, {}], "digital IO": [0, 0, 1, 1]}}
# EndOfHeader
0	0	0	0	0	562	600	509	195	31	33	
1	0	0	0	0	561	600	511	192	32	33	
2	0	0	0	0	562	601	512	195	31	33	
3	0	0	0	0	561	600	511	193	31	33	
4	0	0	0	0	560	599	510	195	31	33	
5	0	0	0	0	561	600	512	193	31	33	
6	0	0	0	0	561	601	511	195	31	33	
7	0	0	0	0	563	600	514	193	31	34	
8	0	0	0	0	562	601	510	195	31	34	
9	0	0	0	0	562	600	511	193	31	34	
10	0	0	0	0	563	600	510	195	31	34	
11	0	0	0	0	562	601	511	193	30	34	
12	0	0	0	0	563	601	510	195	31	34	
13	0	0	0	0	564	601	511	193	31	34	
14	0	0	0	0	564	600	513	195	31	34	
15	0	0	0	0	563	601	511	193	31	34	
0	0	0	0	0	563	599	510	195	31	34	
1	0	0	0	0	563	600	512	193	31	34	
2	0	0	0	0	562	599	512	195	31	34	
3	0	0	0	0	561	600	511	193	31	34	
4	0	0	0	0	563	601	512	195	31	34	
5	0	0	0	0	562	600	512	193	31	34	
6	0	0	0	0	563	601	511	195	31	34	
7	0	0	0	0	561	600	511	193	31	34	
8	0	0	0	0	561	600	512	195	31	34	
9	0	0	0	0	562	600	512	193	31	34	
10	0	0	0	0	561	601	511	195	31	34	
11	0	0	0	0	562	600	512	193	31	34	
12	0	0	0	0	562	600	510	196	31	34	
13	0	0	0	0	563	602	511	193	31	34	
14	0	0	0	0	562	600	510	195	31	34	
15	0	0	0	0	562	600	511	194	31	34	
0	0	0	0	0	563	600	511	195	30	34	
1	0	0	0	0	562	600	513	194	30	34	
2	0	0	0	0	564	600	511	196	30	34	
3	0	0	0	0	563	600	512	194	31	34	
4	0	0	0	0	563	600	510	195	30	34	
5	0	0	0	0	561	601	511	194	31	34	
6	0	0	0	0	561	601	510	195	30	34	
7	0	0	0	0	562	601	511	194	31	34	
8	0	0	0	0	562	601	511	196	30	34	
9	0	0	0	0	562	600	509	194	30	34	
10	0	0	0	0	562	602	511	195	31	34	
11	0	0	0	0	561	601	511	194	31	34	
12	0	0	0	0	563	600	512	195	30	34	
13	0	0	0	0	563	600	511	194	30	34	
14	0	0	0	0	563	600	511	196	30	34	
15	0	0	0	0	563	600	512	194	30	34	
0	0	0	0	0	563	600	513	195	31	34	
1	0	0	0	0	563	600	511	194	31	34	
2	0	0	0	0	563	600	510	196	31	34	
3	0	0	0	0	562	599	511	194	31	34	
4	0	0	0	0	563	600	511	196	31	34	
5	0	0	0	0	563	599	510	194	31	34	
6	0	0	0	0	563	601	512	196	31	34	
7	0	0	0	0	562	601	512	194	30	34	
8	0	0	0	0	563	601	513	196	28	34	
9	0	0	0	0	563	601	510	194	27	34	
10	0	0	0	0	562	603	512	196	29	34	
11	0	0	0	0	562	601	512	195	32	34	
12	0	0	0	0	562	600	512	196	31	34	
13	0	0	0	0	563	600	512	194	32	34	
14	0	0	0	0	563	599	513	196	32	34	
15	0	0	0	0	563	599	510	195	32	34	
0	0	0	0	0	563	600	512	196	31	34	
1	0	0	0	0	563	601	512	195	32	34	
2	0	0	0	0	563	602	511	196	32	34	
3	0	0	0	0	561	601	511	195	32	34	
4	0	0	0	0	562	602	511	196	31	33	
5	0	0	0	0	562	601	512	195	31	33	
6	0	0	0	0	563	602	512	197	31	33	
7	0	0	0	0	561	601	511	195	31	33	
8	0	0	0	0	563	600	511	197	31	32	
9	0	0	0	0	563	599	511	195	31	32	
10	0	0	0	0	563	600	510	197	31	32	
11	0	0	0	0	561	600	511	195	31	32	
12	0	0	0	0	562	601	512	197	30	31	
13	0	0	0	0	563	600	512	195	30	31	
14	0	0	0	0	563	600	510	196	30	31	
15	0	0	0	0	561	601	510	195	30	31	
0	0	0	0	0	564	600	510	197	30	31	
1	0	0	0	0	563	600	511	195	30	31	
2	0	0	0	0	563	600	511	197	30	30	
3	0	0	0	0	564	600	512	195	30	30	
4	0	0	0	0	564	598	510	197	30	30	
5	0	0	0	0	563	600	510	195	31	30	
6	0	0	0	0	564	600	511	197	31	30	
7	0	0	0	0	563	600	510	195	32	30	
8	0	0	0	0	564	600	511	198	31	30	
9	0	0	0	0	563	600	510	196	32	30	
10	0	0	0	0	564	601	511	198	32	30	
11	0	0	0	0	562	600	511	195	32	29	
12	0	0	0	0	563	600	511	198	32	29	
13	0	0	0	0	561	600	511	196	31	29	
14	0	0	0	0	563	600	510	198	31	29	
15	0	0	0	0	562	601	511	196	31	29	
0	0	0	0	0	562	600	511	198	31	29	
1	0	0	0	0	563	601	512	196	31	29	
2	0	0	0	0	563	600	512	198	31	29	
3	0	0	0	0	563	600	511	196	31	29	
4	0	0	0	0	563	601	511	198	31	29	
5	0	0	0	0	563	600	510	196	31	29	
6	0	0	0	0	563	600	513	198	31	29	
7	0	0	0	0	563	601	511	196	31	29	
8	0	0	0	0	562	601	511	198	31	29	
9	0	0	0	0	563	600	510	196	31	29	
10	0	0	0	0	563	601	512	198	31	28	
11	0	0	0	0	562	601	510	195	31	28	
12	0	0	0	0	563	600	511	198	31	28	
13	0	0	0	0	562	601	511	196	31	28	
14	0	0	0	0	562	601	512	198	31	28	
15	0	0	0	0	561	600	510	196	31	28	
0	0	0	0	0	561	600	511	198	31	28	
1	0	0	0	0	564	600	511	196	31	28	
2	0	0	0	0	563	600	511	198	31	28	
3	0	0	0	0	563	600	511	196	31	28	
4	0	0	0	0	563	600	510	198	31	28	
5	0	0	0	0	563	601	512	196	31	28	
6	0	0	0	0	562	599	511	198	31	28	
7	0	0	0	0	563	600	512	197	32	28	
8	0	0	0	0	563	601	510	198	31	28	
9	0	0	0	0	563	600	511	197	31	28	
10	0	0	0	0	563	600	510	199	31	28	
11	0	0	0	0	563	599	510	196	31	27	
12	0	0	0	0	565	601	512	198	31	27	
13	0	0	0	0	562	600	512	196	31	27	
14	0	0	0	0	563	600	512	199	31	27	
15	0	0	0	0	562	600	511	196	31	27	
0	0	0	0	0	563	601	511	199	31	27	
1	0	0	0	0	562	600	510	196	31	27	
2	0	0	0	0	563	600	511	199	31	27	
3	0	0	0	0	563	600	511	197	31	27	
4	0	0	0	0	561	601	509	199	31	27	
5	0	0	0	0	561	600	512	197	31	27	
6	0	0	0	0	562	600	511	199	31	27	
7	0	0	0	0	562	599	510	196	31	27	
8	0	0	0	0	562	600	509	199	30	27	
9	0	0	0	0	563	601	510	197	31	27	
10	0	0	0	0	562	601	510	199	30	27	
11	0	0	0	0	562	601	512	197	30	27	
12	0	0	0	0	562	601	512	199	31	27	
13	0	0	0	0	563	600	511	197	32	27	
14	0	0	0	0	562	600	509	199	31	27	
15	0	0	0	0	561	600	512	197	31	27	
0	0	0	0	0	562	599	511	199	31	27	
1	0	0	0	0	563	600	511	197	31	27	
2	0	0	0	0	562	600	511	199	31	28	
3	0	0	0	0	561	601	511	197	31	28	
4	0	0	0	0	562	600	509	199	29	28	
5	0	0	0	0	563	600	510	198	27	28	
6	0	0	0	0	561	600	510	199	28	28	
7	0	0	0	0	561	601	510	197	32	28	
8	0	0	0	0	563	600	510	199	31	28	
9	0	0	0	0	562	600	510	198	32	28	
10	0	0	0	0	563	601	511	199	32	28	
11	0	0	0	0	563	600	510	198	32	28	
12	0	0	0	0	564	599	512	199	31	28	
13	0	0	0	0	566	596	511	198	31	28	
14	0	0	0	0	568	596	511	199	31	28	
15	0	0	0	0	569	593	509	198	32	28	
0	0	0	0	0	572	591	508	199	31	27	
1	0	0	0	0	573	589	509	198	31	27	
2	0	0	0	0	574	591	509	199	31	27	
3	0	0	0	0	573	589	509	198	32	27	
4	0	0	0	0	573	589	508	199	32	27	
5	0	0	0	0	573	587	509	198	31	26	
6	0	0	0	0	571	588	509	199	31	26	
7	0	0	0	0	570	591	510	197	31	26	
8	0	0	0	0	566	594	511	200	31	26	
9	0	0	0	0	566	598	510	198	32	26	
10	0	0	0	0	561	598	512	199	31	26	
11	0	0	0	0	557	600	513	198	31	26	
12	0	0	0	0	557	606	513	199	31	26	
13	0	0	0	0	553	608	515	198	31	26	
14	0	0	0	0	551	608	515	200	31	26	
15	0	0	0	0	551	608	518	198	31	26	
0	0	0	0	0	553	611	517	199	30	26	
1	0	0	0	0	550	611	518	198	31	26	
2	0	0	0	0	549	605	519	200	31	26	
3	0	0	0	0	549	610	519	198	31	26	
4	0	0	0	0	547	604	520	200	31	26	
5	0	0	0	0	550	611	522	198	31	26	
6	0	0	0	0	548	607	519	200	31	25	
7	0	0	0	0	547	607	520	198	31	25	
8	0	0	0	0	548	607	521	200	30	25	
9	0	0	0	0	547	608	521	198	30	25	
10	0	0	0	0	546	612	523	200	30	25	
11	0	0	0	0	544	607	521	198	31	25	
12	0	0	0	0	544	606	525	200	30	25	
13	0	0	0	0	547	612	521	198	31	25	
14	0	0	0	0	545	606	524	200	31	25	
15	0	0	0	0	546	613	517	198	31	25	
0	0	0	0	0	545	614	522	200	30	24	
1	0	0	0	0	543	609	523	198	30	24	
2	0	0	0	0	542	612	525	200	30	24	
3	0	0	0	0	542	613	523	198	30	24	
4	0	0	0	0	542	610	526	200	30	24	
5	0	0	0	0	541	609	526	198	30	24	
6	0	0	0	0	541	612	526	200	30	24	
7	0	0	0	0	540	611	527	198	30	24	
8	0	0	0	0	541	609	527	200	30	23	
9	0	0	0	0	542	608	527	198	30	23	
10	0	0	0	0	540	610	526	200	30	23	
11	0	0	0	0	538	599	533	198	31	23	
12	0	0	0	0	544	616	527	200	30	23	
13	0	0	0	0	541	610	527	198	30	23	
14	0	0	0	0	541	607	529	200	30	23	
15	0	0	0	0	543	609	526	198	31	23	
0	0	0	0	0	544	611	527	201	31	23	
1	0	0	0	0	543	608	530	198	31	23	
2	0	0	0	0	546	609	528	200	30	23	
3	0	0	0	0	545	611	529	198	31	23	
4	0	0	0	0	546	607	529	200	30	23	
5	0	0	0	0	544	608	529	199	31	23	
6	0	0	0	0	544	611	530	200	31	22	
7	0	0	0	0	545	612	529	199	31	22	
8	0	0	0	0	545	611	529	200	30	22	
9	0	0	0	0	543	612	531	199	30	22	
10	0	0	0	0	545	612	531	200	30	22	
11	0	0	0	0	544	610	531	198	30	22	
12	0	0	0	0	546	611	532	200	30	22	
13	0	0	0	0	547	610	531	199	30	22	
14	0	0	0	0	546	609	531	200	30	22	
15	0	0	0	0	546	609	531	199	30	22	
0	0	0	0	0	547	608	532	201	30	22	
1	0	0	0	0	548	608	532	199	30	22	
2	0	0	0	0	547	607	532	201	30	22	
3	0	0	0	0	546	608	531	199	30	22	
4	0	0	0	0	547	608	533	200	30	22	
5	0	0	0	0	546	608	531	199	30	22	
6	0	0	0	0	547	607	533	200	30	22	
7	0	0	0	0	546	609	532	198	29	22	
8	0	0	0	0	547	608	534	200	29	22	
9	0	0	0	0	547	609	533	199	30	22	
10	0	0	0	0	549	608	533	201	30	22	
11	0	0	0	0	548	607	532	199	31	22	
12	0	0	0	0	550	608	532	200	31	22	
13	0	0	0	0	549	608	533	198	31	22	
14	0	0	0	0	549	607	532	200	31	22	
15	0	0	0	0	549	608	531	199	31	22	
0	0	0	0	0	551	608	532	201	30	22	
1	0	0	0	0	548	607	533	198	27	22	
2	0	0	0	0	550	608	532	200	27	22	
3	0	0	0	0	549	606	533	199	31	22	
4	0	0	0	0	550	606	534	200	32	22	
5	0	0	0	0	549	607	533	199	32	22	
6	0	0	0	0	547	608	534	201	32	22	
7	0	0	0	0	549	608	534	199	32	22	
8	0	0	0	0	548	607	533	201	32	22	
9	0	0	0	0	547	606	532	199	32	22	
10	0	0	0	0	548	607	532	201	32	22	
11	0	0	0	0	547	607	532	199	32	22	
12	0	0	0	0	549	605	533	201	31	22	
13	0	0	0	0	549	605	532	199	32	22	
14	0	0	0	0	549	606	533	201	32	22	
15	0	0	0	0	551	607	532	199	31	22	
0	0	0	0	0	550	606	533	201	31	22	
1	0	0	0	0	550	607	533	199	31	22	
2	0	0	0	0	551	606	532	201	31	22	
3	0	0	0	0	551	606	533	199	31	22	
4	0	0	0	0	549	606	533	201	31	22	
5	0	0	0	0	550	607	532	199	31	22	
6	0	0	0	0	550	606	532	201	31	22	
7	0	0	0	0	549	607	532	199	30	22	
8	0	0	0	0	551	604	530	201	30	22	
9	0	0	0	0	549	606	533	199	30	22	
10	0	0	0	0	550	607	532	201	30	22	
11	0	0	0	0	548	606	534	199	30	22	
12	0	0	0	0	548	606	533	201	30	22	
13	0	0	0	0	550	607	534	199	31	22	
14	0	0	0	0	550	605	532	201	31	22	
15	0	0	0	0	548	605	534	199	31	22	
0	0	0	0	0	549	606	532	201	32	22	
1	0	0	0	0	548	606	533	199	32	22	
2	0	0	0	0	549	606	533	201	32	22	
3	0	0	0	0	549	606	532	199	32	22	
4	0	0	0	0	550	606	532	201	32	22	
5	0	0	0	0	550	606	532	199	32	22	
6	0	0	0	0	550	604	533	201	32	22	
7	0	0	0	0	551	604	533	199	32	22	
8	0	0	0	0	550	605	532	201	31	22	
9	0	0	0	0	550	604	533	199	31	22	
10	0	0	0	0	550	604	534	201	31	22	
11	0	0	0	0	549	605	532	199	31	23	
12	0	0	0	0	550	606	532	201	31	23	
13	0	0	0	0	549	606	531	199	31	23	
14	0	0	0	0	551	606	533	201	31	23	
15	0	0	0	0	548	606	533	199	31	23	
0	0	0	0	0	550	607	532	201	30	23	
1	0	0	0	0	549	607	533	199	31	23	
2	0	0	0	0	548	606	534	201	31	23	
3	0	0	0	0	550	606	532	199	31	23	
4	0	0	0	0	551	607	532	201	31	24	
5	0	0	0	0	552	605	532	199	31	24	
6	0	0	0	0	553	606	532	201	31	24	
7	0	0	0	0	552	607	530	199	31	24	
8	0	0	0	0	555	606	531	202	31	24	
9	0	0	0	0	552	607	531	199	31	24	
10	0	0	0	0	552	604	532	201	31	24	
11	0	0	0	0	550	604	533	199	31	24	
12	0	0	0	0	548	605	533	201	30	24	
13	0	0	0	0	549	605	534	199	31	24	
14	0	0	0	0	549	606	533	201	30	24	
15	0	0	0	0	549	604	533	199	31	24	
0	0	0	0	0	550	606	533	201	30	24	
1	0	0	0	0	549	606	533	199	31	25	
2	0	0	0	0	550	607	533	201	31	25	
3	0	0	0	0	550	606	533	199	31	25	
4	0	0	0	0	550	606	532	202	31	25	
5	0	0	0	0	549	606	533	200	31	25	
6	0	0	0	0	549	606	534	201	31	25	
7	0	0	0	0	550	604	534	199	31	25	
8	0	0	0	0	550	607	532	202	31	25	
9	0	0	0	0	548	606	533	199	31	25	
10	0	0	0	0	550	607	532	201	31	26	
11	0	0	0	0	549	607	534	199	31	26	
12	0	0	0	0	551	607	534	202	31	26	
13	0	0	0	0	550	607	533	200	31	26	
14	0	0	0	0	551	605	532	201	31	26	
15	0	0	0	0	550	605	532	199	31	26	
0	0	0	0	0	552	605	534	202	31	27	
1	0	0	0	0	551	606	533	200	30	27	
2	0	0	0	0	551	606	534	202	30	27	
3	0	0	0	0	550	607	533	200	31	27	
4	0	0	0	0	549	606	534	201	31	27	
5	0	0	0	0	548	605	534	199	31	27	
6	0	0	0	0	549	606	535	202	31	27	
7	0	0	0	0	549	606	533	199	31	27	
8	0	0	0	0	551	605	533	202	31	27	
9	0	0	0	0	550	606	532	199	31	27	
10	0	0	0	0	550	607	533	202	31	27	
11	0	0	0	0	549	605	532	199	31	28	
12	0	0	0	0	550	607	534	202	29	28	
13	0	0	0	0	550	604	533	199	27	28	
14	0	0	0	0	551	604	531	201	28	28	
15	0	0	0	0	550	605	532	200	31	28	
0	0	0	0	0	550	604	531	201	31	28	
1	0	0	0	0	551	606	534	199	32	28	
2	0	0	0	0	551	605	531	202	32	28	
3	0	0	0	0	550	604	531	199	32	28	
4	0	0	0	0	551	604	532	201	32	28	
5	0	0	0	0	551	605	532	200	32	28	
6	0	0	0	0	550	605	532	201	31	28	
7	0	0	0	0	549	607	533	199	32	28	
8	0	0	0	0	550	606	532	201	31	28	
9	0	0	0	0	550	606	534	200	31	28	
10	0	0	0	0	549	606	535	202	31	29	
11	0	0	0	0	549	606	532	199	31	29	
12	0	0	0	0	551	606	534	202	31	29	
13	0	0	0	0	549	605	534	199	31	29	
14	0	0	0	0	550	607	533	202	31	29	
15	0	0	0	0	550	606	533	200	31	29	
0	0	0	0	0	551	606	532	202	31	29	
1	0	0	0	0	551	607	530	199	30	29	
2	0	0	0	0	550	606	531	202	31	29	
3	0	0	0	0	550	606	533	199	31	29	
4	0	0	0	0	550	605	534	201	30	29	
5	0	0	0	0	550	605	532	199	31	29	
6	0	0	0	0	551	604	535	202	30	29	
7	0	0	0	0	550	604	534	200	31	29	
8	0	0	0	0	550	605	535	202	31	29	
9	0	0	0	0	549	607	533	199	31	29	
10	0	0	0	0	551	605	533	202	31	29	
11	0	0	0	0	551	604	534	200	32	29	
12	0	0	0	0	551	606	534	202	32	29	
13	0	0	0	0	551	605	533	199	32	29	
14	0	0	0	0	551	606	533	201	32	29	
15	0	0	0	0	551	605	534	200	32	28	
0	0	0	0	0	551	605	534	202	32	28	
1	0	0	0	0	549	606	534	199	32	28	
2	0	0	0	0	550	606	533	202	32	28	
3	0	0	0	0	548	607	534	200	32	28	
4	0	0	0	0	549	605	533	202	32	28	
5	0	0	0	0	550	606	534	200	32	28	
6	0	0	0	0	551	605	534	202	31	28	
7	0	0	0	0	551	605	534	199	31	28	
8	0	0	0	0	552	606	533	202	31	28	
9	0	0	0	0	551	606	534	200	31	28	
10	0	0	0	0	550	605	534	202	31	28	
11	0	0	0	0	550	606	535	200	31	28	
12	0	0	0	0	550	606	533	202	31	28	
13	0	0	0	0	550	605	533	200	31	29	
14	0	0	0	0	551	606	532	202	31	29	
15	0	0	0	0	551	605	532	200	31	29	
0	0	0	0	0	551	606	533	202	31	29	
1	0	0	0	0	551	606	532	200	31	29	
2	0	0	0	0	550	605	533	202	31	29	
3	0	0	0	0	551	604	533	200	30	29	
4	0	0	0	0	551	607	533	202	31	29	
5	0	0	0	0	549	605	534	200	31	29	
6	0	0	0	0	550	606	534	202	30	29	
7	0	0	0	0	549	605	533	200	31	29	
8	0	0	0	0	551	606	532	202	31	29	
9	0	0	0	0	550	605	533	200	31	29	
10	0	0	0	0	550	606	534	202	31	29	
11	0	0	0	0	549	606	533	200	31	29	
12	0	0	0	0	550	606	532	202	31	29	
13	0	0	0	0	551	606	534	200	31	29	
14	0	0	0	0	551	606	533	202	31	29	
15	0	0	0	0	551	606	535	200	31	29	
0	0	0	0	0	551	606	534	202	31	29	
1	0	0	0	0	551	606	533	200	31	29	
2	0	0	0	0	551	605	532	203	31	29	
3	0	0	0	0	551	605	533	200	31	29	
4	0	0	0	0	551	607	534	202	31	29	
5	0	0	0	0	551	604	534	200	31	29	
6	0	0	0	0	551	606	534	202	31	29	
7	0	0	0	0	551	606	532	199	31	29	
8	0	0	0	0	550	607	533	202	31	29	
9	0	0	0	0	550	606	534	199	31	29	
10	0	0	0	0	549	606	532	202	30	29	
11	0	0	0	0	550	606	533	200	30	30	
12	0	0	0	0	549	607	534	201	30	30	
13	0	0	0	0	550	604	532	200	31	30	
14	0	0	0	0	549	606	532	202	31	30	
15	0	0	0	0	550	604	534	199	31	30	
0	0	0	0	0	551	606	533	202	31	30	
1	0	0	0	0	550	605	532	200	31	30	
2	0	0	0	0	550	605	533	202	31	30	
3	0	0	0	0	550	605	534	200	31	30	
4	0	0	0	0	551	608	534	202	31	30	
5	0	0	0	0	550	607	532	200	32	30	
6	0	0	0	0	549	606	534	201	31	30	
7	0	0	0	0	549	607	533	200	28	31	
8	0	0	0	0	550	607	533	201	28	31	
9	0	0	0	0	550	606	533	200	31	31	
10	0	0	0	0	550	606	534	201	32	31	
11	0	0	0	0	551	604	533	199	32	31	
12	0	0	0	0	551	606	534	203	32	31	
13	0	0	0	0	552	607	534	200	32	31	
14	0	0	0	0	550	606	532	202	32	31	
15	0	0	0	0	551	605	534	200	32	32	
0	0	0	0	0	550	606	534	202	32	32	
1	0	0	0	0	550	607	534	200	32	32	
2	0	0	0	0	550	606	535	202	32	32	
3	0	0	0	0	549	606	535	199	32	32	
4	0	0	0	0	551	605	534	202	32	32	
5	0	0	0	0	549	605	533	199	31	32	
6	0	0	0	0	550	604	534	202	31	32	
7	0	0	0	0	549	606	534	200	32	32	
8	0	0	0	0	550	605	532	202	31	32	
9	0	0	0	0	551	606	534	200	31	32	
10	0	0	0	0	549	605	533	202	31	32	
11	0	0	0	0	550	606	534	199	31	32	
12	0	0	0	0	551	605	532	202	31	32	
13	0	0	0	0	550	606	532	200	30	32	
14	0	0	0	0	550	606	532	202	31	32	
15	0	0	0	0	550	606	532	200	30	32	
0	0	0	0	0	551	605	534	202	30	31	
1	0	0	0	0	550	606	533	200	30	31	
2	0	0	0	0	550	605	535	201	30	31	
3	0	0	0	0	549	607	534	199	31	31	
4	0	0	0	0	550	606	533	202	31	31	
5	0	0	0	0	550	608	532	200	31	31	
6	0	0	0	0	550	607	533	202	32	31	
7	0	0	0	0	550	606	534	200	32	31	
8	0	0	0	0	550	606	532	203	32	31	
9	0	0	0	0	550	606	534	200	32	31	
10	0	0	0	0	550	606	533	202	32	30	
11	0	0	0	0	549	605	533	200	32	30	
12	0	0	0	0	549	604	533	202	31	30	
13	0	0	0	0	548	605	534	199	31	30	
14	0	0	0	0	548	607	534	202	31	30	
15	0	0	0	0	549	607	533	199	31	30	
0	0	0	0	0	550	606	533	202	31	30	
1	0	0	0	0	548	607	533	200	31	30	
2	0	0	0	0	549	608	534	203	30	30	
3	0	0	0	0	550	607	531	200	30	30	
4	0	0	0	0	550	607	533	202	30	30	
5	0	0	0	0	548	607	532	200	31	29	
6	0	0	0	0	549	607	531	203	31	29	
7	0	0	0	0	550	606	533	200	31	29	
8	0	0	0	0	549	606	534	202	30	29	
9	0	0	0	0	549	606	534	200	31	29	
10	0	0	0	0	549	605	534	202	30	29	
11	0	0	0	0	550	605	532	200	31	29	
12	0	0	0	0	550	605	533	202	30	29	
13	0	0	0	0	549	607	534	199	31	29	
14	0	0	0	0	549	608	533	202	31	29	
15	0	0	0	0	548	606	532	200	30	29	
0	0	0	0	0	550	606	532	202	30	29	
1	0	0	0	0	550	608	533	200	31	29	
2	0	0	0	0	549	607	533	202	31	29	
3	0	0	0	0	547	607	533	200	31	29	
4	0	0	0	0	548	606	532	202	30	29	
5	0	0	0	0	549	607	532	199	30	29	
6	0	0	0	0	548	606	531	203	31	29	
7	0	0	0	0	548	606	534	200	31	29	
8	0	0	0	0	549	606	533	202	30	29	
9	0	0	0	0	548	605	534	200	31	30	
10	0	0	0	0	547	606	533	202	31	30	
11	0	0	0	0	547	605	534	200	30	30	
12	0	0	0	0	548	607	532	202	30	30	
13	0	0	0	0	548	607	534	200	31	30	
14	0	0	0	0	548	607	534	203	31	30	
15	0	0	0	0	548	607	533	200	30	30	
0	0	0	0	0	549	607	533	202	30	29	
1	0	0	0	0	547	608	532	199	30	29	
2	0	0	0	0	549	607	533	202	30	29	
3	0	0	0	0	549	607	531	200	30	29	
4	0	0	0	0	549	608	532	202	30	29	
5	0	0	0	0	548	607	531	200	30	29	
6	0	0	0	0	549	607	531	202	30	29	
7	0	0	0	0	548	606	533	200	30	29	
8	0	0	0	0	549	605	532	202	31	29	
9	0	0	0	0	548	606	534	200	31	28	
10	0	0	0	0	547	608	533	202	31	28	
11	0	0	0	0	547	605	534	200	31	28	
12	0	0	0	0	547	605	533	202	31	28	
13	0	0	0	0	548	605	533	200	31	28	
14	0	0	0	0	548	607	533	202	31	28	
15	0	0	0	0	547	607	532	200	29	28	
0	0	0	0	0	549	606	534	202	26	27	
1	0	0	0	0	548	607	533	200	28	27	
2	0	0	0	0	549	608	533	203	31	27	
3	0	0	0	0	548	607	532	200	31	27	
4	0	0	0	0	548	607	533	203	31	27	
5	0	0	0	0	547	606	533	200	32	27	
6	0	0	0	0	548	608	532	202	32	26	
7	0	0	0	0	547	608	533	200	32	26	
8	0	0	0	0	548	604	533	203	31	26	
9	0	0	0	0	548	607	533	200	32	26	
10	0	0	0	0	548	607	533	203	31	26	
11	0	0	0	0	547	607	533	200	31	26	
12	0	0	0	0	548	606	534	202	31	26	
13	0	0	0	0	549	607	533	199	32	26	
14	0	0	0	0	548	607	534	202	31	25	
15	0	0	0	0	547	606	533	200	31	25	
0	0	0	0	0	548	607	534	202	31	25	
1	0	0	0	0	547	608	533	200	31	25	
2	0	0	0	0	547	608	532	203	30	24	
3	0	0	0	0	547	608	534	200	31	24	
4	0	0	0	0	547	609	535	202	30	24	
5	0	0	0	0	545	609	534	199	30	24	
6	0	0	0	0	544	611	532	202	30	24	
7	0	0	0	0	545	609	533	200	30	24	
8	0	0	0	0	546	610	531	203	30	24	
9	0	0	0	0	545	609	531	200	30	23	
10	0	0	0	0	545	609	532	202	30	23	
11	0	0	0	0	545	608	533	199	30	23	
12	0	0	0	0	545	608	532	202	31	23	
13	0	0	0	0	547	607	532	200	31	23	
14	0	0	0	0	546	607	533	202	31	23	
15	0	0	0	0	546	607	532	199	32	23	
0	0	0	0	0	547	607	532	203	32	23	
1	0	0	0	0	549	608	532	200	32	22	
2	0	0	0	0	550	609	531	202	32	22	
3	0	0	0	0	550	606	531	200	32	22	
4	0	0	0	0	551	607	530	202	32	22	
5	0	0	0	0	550	608	530	199	32	22	
6	0	0	0	0	551	609	528	202	31	22	
7	0	0	0	0	550	606	531	200	31	22	
8	0	0	0	0	551	605	529	202	31	22	
9	0	0	0	0	551	607	528	200	31	22	
10	0	0	0	0	551	608	529	203	31	21	
11	0	0	0	0	550	607	529	200	31	21	
12	0	0	0	0	553	607	531	202	31	21	
13	0	0	0	0	552	609	529	200	31	21	
14	0	0	0	0	553	604	529	202	31	21	
15	0	0	0	0	554	603	526	200	31	21	
0	0	0	0	0	556	603	527	203	31	21	
1	0	0	0	0	555	603	527	200	31	21	
2	0	0	0	0	555	603	528	202	31	21	
3	0	0	0	0	554	601	525	200	31	21	
4	0	0	0	0	556	604	527	203	31	22	
5	0	0	0	0	556	603	526	200	31	22	
6	0	0	0	0	556	603	526	203	31	22	
7	0	0	0	0	556	603	525	200	31	22	
8	0	0	0	0	559	606	524	203	31	22	
9	0	0	0	0	556	601	524	200	31	22	
10	0	0	0	0	556	601	524	203	31	22	
11	0	0	0	0	558	604	524	200	32	22	
12	0	0	0	0	558	604	524	202	31	22	
13	0	0	0	0	558	604	524	200	31	22	
14	0	0	0	0	558	603	523	202	31	22	
15	0	0	0	0	558	604	523	200	31	22	
0	0	0	0	0	559	603	522	202	31	22	
1	0	0	0	0	560	604	523	201	31	22	
2	0	0	0	0	559	602	523	202	31	22	
3	0	0	0	0	558	601	524	199	31	23	
4	0	0	0	0	560	603	522	202	31	23	
5	0	0	0	0	558	603	523	199	31	23	
6	0	0	0	0	559	600	522	202	31	23	
7	0	0	0	0	559	601	522	200	31	23	
8	0	0	0	0	560	603	523	202	30	23	
9	0	0	0	0	559	604	521	199	31	23	
10	0	0	0	0	559	602	520	202	30	24	
11	0	0	0	0	558	601	522	199	30	24	
12	0	0	0	0	559	604	521	203	30	24	
13	0	0	0	0	558	603	521	200	31	24	
14	0	0	0	0	559	603	521	203	31	24	
15	0	0	0	0	559	602	520	200	31	24	
0	0	0	0	0	560	603	520	202	31	24	
1	0	0	0	0	560	603	520	200	31	25	
2	0	0	0	0	560	605	518	203	31	25	
3	0	0	0	0	559	603	522	199	31	25	
4	0	0	0	0	559	603	520	203	30	25	
5	0	0	0	0	558	602	519	200	27	25	
6	0	0	0	0	558	603	519	202	27	25	
7	0	0	0	0	557	601	520	200	31	25	
8	0	0	0	0	559	601	519	202	32	25	
9	0	0	0	0	559	602	519	200	32	25	
10	0	0	0	0	559	601	518	202	32	25	
11	0	0	0	0	558	601	518	200	32	25	
12	0	0	0	0	557	601	518	203	31	26	
13	0	0	0	0	559	602	518	199	32	26	
14	0	0	0	0	559	603	519	202	31	26	
15	0	0	0	0	559	604	519	200	32	26	
0	0	0	0	0	557	603	518	203	31	26	
1	0	0	0	0	558	603	517	200	32	26	
2	0	0	0	0	559	604	517	202	31	26	
3	0	0	0	0	558	604	518	200	31	26	
4	0	0	0	0	558	604	518	202	31	26	
5	0	0	0	0	559	604	518	199	31	26	
6	0	0	0	0	559	602	519	202	31	26	
7	0	0	0	0	558	601	518	200	31	26	
8	0	0	0	0	558	601	518	203	31	26	
9	0	0	0	0	559	603	518	200	30	26	
10	0	0	0	0	557	603	517	202	31	26	
11	0	0	0	0	556	604	518	200	30	26	
12	0	0	0	0	559	603	516	202	30	26	
13	0	0	0	0	558	603	516	200	30	26	
14	0	0	0	0	558	603	516	202	31	26	
15	0	0	0	0	556	604	515	199	31	26	
0	0	0	0	0	559	605	518	203	30	26	
1	0	0	0	0	558	603	517	200	31	27	
2	0	0	0	0	557	603	515	203	31	27	
3	0	0	0	0	558	604	515	200	32	27	
4	0	0	0	0	558	604	517	202	31	27	
5	0	0	0	0	557	602	518	200	32	27	
6	0	0	0	0	558	603	516	202	32	27	
7	0	0	0	0	558	602	518	200	32	27	
8	0	0	0	0	559	601	515	203	32	27	
9	0	0	0	0	557	601	515	200	32	27	
10	0	0	0	0	556	603	516	202	32	27	
11	0	0	0	0	556	605	517	200	31	27	
12	0	0	0	0	557	604	516	202	31	27	
13	0	0	0	0	558	604	516	199	31	27	
14	0	0	0	0	557	604	516	202	31	27	
15	0	0	0	0	558	602	515	199	31	27	
0	0	0	0	0	558	603	516	202	31	27	
1	0	0	0	0	558	605	517	200	31	27	
2	0	0	0	0	557	603	515	203	31	27	
3	0	0	0	0	557	604	515	199	31	27	
4	0	0	0	0	558	604	517	203	31	27	
5	0	0	0	0	556	604	516	200	31	27	
6	0	0	0	0	557	605	515	202	31	27	
7	0	0	0	0	556	603	516	200	31	27	
8	0	0	0	0	557	604	514	202	31	27	
9	0	0	0	0	556	605	516	199	31	28	
10	0	0	0	0	558	604	516	202	31	28	
11	0	0	0	0	558	604	515	200	31	28	
12	0	0	0	0	557	604	516	202	31	28	
13	0	0	0	0	558	605	516	200	31	28	
14	0	0	0	0	559	604	517	202	31	28	
15	0	0	0	0	558	603	517	199	31	28	
0	0	0	0	0	558	603	515	202	31	28	
1	0	0	0	0	558	602	515	200	31	28	
2	0	0	0	0	558	603	515	202	31	28	
3	0	0	0	0	558	603	515	200	31	28	
4	0	0	0	0	558	603	517	202	31	28	
5	0	0	0	0	557	603	516	200	31	28	
6	0	0	0	0	558	604	515	202	31	28	
7	0	0	0	0	556	602	515	199	31	28	
8	0	0	0	0	558	604	514	202	30	29	
9	0	0	0	0	557	605	515	199	30	29	
10	0	0	0	0	557	604	515	202	30	29	
11	0	0	0	0	556	603	515	199	30	29	
12	0	0	0	0	557	604	515	202	30	29	
13	0	0	0	0	556	604	515	199	30	29	
14	0	0	0	0	556	603	516	202	30	29	
15	0	0	0	0	557	604	516	199	30	29	
0	0	0	0	0	557	603	515	202	31	29	
1	0	0	0	0	556	604	514	200	31	29	
2	0	0	0	0	556	603	515	202	31	29	
3	0	0	0	0	556	602	514	199	31	29	
4	0	0	0	0	557	603	515	202	31	29	
5	0	0	0	0	557	604	515	199	31	29	
6	0	0	0	0	557	604	515	202	31	29	
7	0	0	0	0	556	603	515	199	30	30	
8	0	0	0	0	557	604	514	202	27	30	
9	0	0	0	0	557	603	515	200	27	30	
10	0	0	0	0	556	604	515	202	29	30	
11	0	0	0	0	556	604	517	199	31	30	
12	0	0	0	0	556	604	516	202	31	30	
13	0	0	0	0	557	604	516	199	32	31	
14	0	0	0	0	558	604	514	202	32	31	
15	0	0	0	0	557	603	515	199	32	31	
0	0	0	0	0	557	602	515	202	31	31	
1	0	0	0	0	556	603	515	199	32	31	
2	0	0	0	0	558	603	515	202	31	31	
3	0	0	0	0	556	604	515	199	31	32	
4	0	0	0	0	556	603	514	201	31	32	
5	0	0	0	0	556	604	517	199	31	32	
6	0	0	0	0	556	605	515	202	31	32	
7	0	0	0	0	557	606	516	199	31	32	
8	0	0	0	0	558	605	514	202	31	32	
9	0	0	0	0	558	603	515	199	31	32	
10	0	0	0	0	559	604	515	202	31	32	
11	0	0	0	0	557	603	515	199	31	32	
12	0	0	0	0	557	604	516	202	30	32	
13	0	0	0	0	558	604	516	199	31	32	
14	0	0	0	0	558	603	514	201	30	32	
15	0	0	0	0	557	605	513	199	30	32	
0	0	0	0	0	558	605	514	202	30	32	
1	0	0	0	0	557	604	513	199	30	32	
2	0	0	0	0	558	604	515	201	31	32	
3	0	0	0	0	556	603	514	199	30	32	
4	0	0	0	0	558	603	515	202	31	32	
5	0	0	0	0	556	603	514	199	31	32	
6	0	0	0	0	557	604	515	201	31	32	
7	0	0	0	0	557	603	515	199	32	32	
8	0	0	0	0	557	604	514	202	32	32	
9	0	0	0	0	557	604	514	199	32	32	
10	0	0	0	0	557	604	515	201	32	32	
11	0	0	0	0	556	604	514	199	32	31	
12	0	0	0	0	556	604	514	201	32	31	
13	0	0	0	0	556	604	514	199	32	31	
14	0	0	0	0	556	604	514	202	32	31	
15	0	0	0	0	556	604	513	199	32	31	
0	0	0	0	0	558	605	514	202	31	30	
1	0	0	0	0	556	604	514	199	32	30	
2	0	0	0	0	558	604	514	201	31	30	
3	0	0	0	0	556	603	514	199	31	29	
4	0	0	0	0	556	604	513	202	31	29	
5	0	0	0	0	556	604	516	199	31	29	
6	0	0	0	0	557	604	514	202	31	29	
7	0	0	0	0	557	606	516	199	31	29	
8	0	0	0	0	557	604	514	202	31	29	
9	0	0	0	0	556	604	515	199	31	28	
10	0	0	0	0	557	604	515	202	31	28	
11	0	0	0	0	556	605	514	199	31	28	
12	0	0	0	0	556	605	514	201	31	28	
13	0	0	0	0	557	605	514	199	31	28	
14	0	0	0	0	556	604	514	201	31	29	
15	0	0	0	0	556	604	515	199	31	29	
0	0	0	0	0	556	604	513	201	31	29	
1	0	0	0	0	556	605	513	199	31	29	
2	0	0	0	0	557	604	514	201	31	29	
3	0	0	0	0	558	604	515	199	31	29	
4	0	0	0	0	557	605	514	202	31	29	
5	0	0	0	0	556	604	515	199	31	29	
6	0	0	0	0	556	605	515	201	31	29	
7	0	0	0	0	556	604	513	199	31	29	
8	0	0	0	0	557	605	513	201	31	29	
9	0	0	0	0	556	603	515	199	31	29	
10	0	0	0	0	556	604	513	202	31	29	
11	0	0	0	0	556	604	514	199	31	29	
12	0	0	0	0	557	604	514	201	31	29	
13	0	0	0	0	556	604	514	199	31	29	
14	0	0	0	0	556	604	515	201	31	29	
15	0	0	0	0	555	605	515	199	31	29	
0	0	0	0	0	556	605	514	201	31	29	
1	0	0	0	0	557	605	514	199	31	29	
2	0	0	0	0	556	605	515	201	31	29	
3	0	0	0	0	555	604	514	199	31	29	
4	0	0	0	0	556	604	515	201	31	29	
5	0	0	0	0	556	605	515	199	31	29	
6	0	0	0	0	556	604	513	201	31	29	
7	0	0	0	0	555	604	515	199	31	29	
8	0	0	0	0	557	605	514	201	31	29	
9	0	0	0	0	557	606	515	198	31	29	
10	0	0	0	0	556	604	515	201	31	29	
11	0	0	0	0	556	604	514	199	29	29	
12	0	0	0	0	556	604	512	201	27	29	
13	0	0	0	0	556	606	514	199	29	29	
14	0	0	0	0	555	606	514	201	32	30	
15	0	0	0	0	555	606	513	199	32	30	
0	0	0	0	0	558	607	515	201	31	30	
1	0	0	0	0	557	604	515	199	32	30	
2	0	0	0	0	557	604	514	201	32	30	
3	0	0	0	0	556	603	515	199	32	30	
4	0	0	0	0	558	604	515	201	31	30	
5	0	0	0	0	557	605	514	199	32	30	
6	0	0	0	0	556	603	514	201	32	31	
7	0	0	0	0	556	604	515	199	32	31	
8	0	0	0	0	555	603	515	201	31	31	
9	0	0	0	0	557	605	515	198	31	31	
10	0	0	0	0	556	605	513	201	31	31	
11	0	0	0	0	556	603	514	199	31	31	
12	0	0	0	0	556	604	513	200	31	31	
13	0	0	0	0	556	604	513	199	31	31	
14	0	0	0	0	556	604	515	201	31	31	
15	0	0	0	0	555	606	513	199	31	31	
0	0	0	0	0	556	604	514	201	30	31	
1	0	0	0	0	556	605	514	199	31	31	
2	0	0	0	0	556	604	513	200	31	31	
3	0	0	0	0	556	604	513	199	31	32	
4	0	0	0	0	557	604	515	201	30	32	
5	0	0	0	0	555	605	514	199	31	32	
6	0	0	0	0	556	605	512	200	30	32	
7	0	0	0	0	555	604	514	199	31	32	
8	0	0	0	0	555	605	515	201	31	33	
9	0	0	0	0	556	606	514	199	31	33	
10	0	0	0	0	555	605	515	201	31	33	
11	0	0	0	0	555	605	513	198	31	33	
12	0	0	0	0	556	605	515	201	31	33	
13	0	0	0	0	556	606	515	198	32	33	
14	0	0	0	0	555	607	512	201	32	33	
15	0	0	0	0	554	604	514	199	31	33	
0	0	0	0	0	556	605	514	201	31	34	
1	0	0	0	0	556	604	515	198	31	34	
2	0	0	0	0	556	604	513	201	31	34	
3	0	0	0	0	557	606	513	198	31	34	
4	0	0	0	0	558	605	512	201	31	34	
5	0	0	0	0	556	604	514	199	31	34	
6	0	0	0	0	556	605	515	201	31	34	
7	0	0	0	0	556	604	514	199	31	34	
8	0	0	0	0	555	605	514	201	30	34	
9	0	0	0	0	556	604	514	199	30	34	
10	0	0	0	0	556	605	513	201	30	34	
11	0	0	0	0	556	605	513	199	30	34	
12	0	0	0	0	556	605	513	201	30	34	
13	0	0	0	0	556	603	513	198	31	34	
14	0	0	0	0	555	604	512	201	31	34	
15	0	0	0	0	556	604	512	199	31	34	
0	0	0	0	0	556	605	515	201	31	34	
1	0	0	0	0	557	604	515	198	31	34	
2	0	0	0	0	556	604	514	201	30	34	
3	0	0	0	0	556	604	513	198	31	34	
4	0	0	0	0	557	604	513	201	30	34	
5	0	0	0	0	556	605	514	199	30	34	
6	0	0	0	0	556	605	513	200	30	34	
7	0	0	0	0	556	605	514	198	30	34	
8	0	0	0	0	556	604	513	200	30	34	
9	0	0	0	0	557	605	512	198	30	34	
10	0	0	0	0	556	605	512	200	30	34	
11	0	0	0	0	556	605	513	198	30	34	
12	0	0	0	0	556	605	513	201	30	34	
13	0	0	0	0	555	606	514	198	30	34	
14	0	0	0	0	557	604	513	201	30	34	
15	0	0	0	0	555	604	513	199	30	34	
0	0	0	0	0	556	604	514	200	30	34	
1	0	0	0	0	557	605	514	198	30	35	
2	0	0	0	0	556	606	515	200	30	35	
3	0	0	0	0	556	604	513	199	31	35	
4	0	0	0	0	556	605	515	201	31	35	
5	0	0	0	0	556	604	513	198	31	35	
6	0	0	0	0	556	604	515	201	31	35	
7	0	0	0	0	555	604	513	198	31	35	
8	0	0	0	0	556	605	513	201	31	35	
9	0	0	0	0	556	605	513	198	31	35	
10	0	0	0	0	556	604	515	200	30	35	
11	0	0	0	0	555	604	514	198	28	35	
12	0	0	0	0	556	604	515	200	27	35	
13	0	0	0	0	555	605	513	198	30	35	
14	0	0	0	0	557	604	514	201	31	35	
15	0	0	0	0	557	605	513	198	31	35	
0	0	0	0	0	555	607	514	201	31	35	
1	0	0	0	0	556	604	514	198	32	35	
2	0	0	0	0	555	604	514	200	32	35	
3	0	0	0	0	556	604	512	198	32	35	
4	0	0	0	0	557	605	512	201	32	35	
5	0	0	0	0	557	605	514	198	32	36	
6	0	0	0	0	557	602	513	201	31	36	
7	0	0	0	0	556	605	515	198	32	36	
8	0	0	0	0	557	604	514	200	31	36	
9	0	0	0	0	556	605	513	198	31	36	
10	0	0	0	0	556	604	513	201	31	36	
11	0	0	0	0	556	604	513	198	31	36	
12	0	0	0	0	557	604	513	201	31	36	
13	0	0	0	0	556	606	514	198	31	36	
14	0	0	0	0	555	606	514	200	31	36	
15	0	0	0	0	556	607	513	199	31	36	
0	0	0	0	0	556	604	513	201	31	36	
1	0	0	0	0	555	604	513	197	31	36	
2	0	0	0	0	557	605	513	200	30	36	
3	0	0	0	0	556	604	511	198	30	36	
4	0	0	0	0	556	604	512	200	30	36	
5	0	0	0	0	557	604	512	198	31	36	
6	0	0	0	0	556	606	512	201	31	36	
7	0	0	0	0	556	604	514	198	31	36	
8	0	0	0	0	557	605	513	201	31	36	
9	0	0	0	0	555	604	513	198	32	36	
10	0	0	0	0	558	604	511	200	32	36	
11	0	0	0	0	555	604	514	198	32	36	
12	0	0	0	0	556	605	513	200	32	36	
13	0	0	0	0	556	605	512	198	32	36	
14	0	0	0	0	555	606	511	201	32	36	
15	0	0	0	0	555	604	515	198	32	36	
0	0	0	0	0	554	605	513	200	31	36	
1	0	0	0	0	555	606	514	198	31	36	
2	0	0	0	0	556	606	512	200	31	36	
3	0	0	0	0	555	604	512	198	31	36	
4	0	0	0	0	558	604	513	200	31	36	
5	0	0	0	0	557	605	514	198	31	37	
6	0	0	0	0	556	605	514	201	31	37	
7	0	0	0	0	556	605	512	198	31	37	
8	0	0	0	0	557	604	515	200	31	37	
9	0	0	0	0	556	605	514	198	31	37	
10	0	0	0	0	555	604	512	201	31	37	
11	0	0	0	0	554	605	512	198	31	37	
12	0	0	0	0	556	605	513	201	31	37	
13	0	0	0	0	555	605	513	198	31	37	
14	0	0	0	0	555	605	514	201	31	37	
15	0	0	0	0	555	606	513	198	31	37	
0	0	0	0	0	556	605	514	200	31	37	
1	0	0	0	0	555	604	513	198	31	38	
2	0	0	0	0	556	603	514	200	31	38	
3	0	0	0	0	555	604	514	198	31	38	
4	0	0	0	0	556	604	513	201	31	38	
5	0	0	0	0	556	604	511	198	31	38	
6	0	0	0	0	556	605	513	200	30	38	
7	0	0	0	0	555	604	512	198	30	38	
8	0	0	0	0	555	606	512	200	30	38	
9	0	0	0	0	555	605	513	198	31	38	
10	0	0	0	0	555	605	512	200	30	38	
11	0	0	0	0	555	604	511	198	30	38	
12	0	0	0	0	555	605	512	201	30	38	
13	0	0	0	0	555	604	512	199	30	38	
14	0	0	0	0	555	604	510	200	30	38	
15	0	0	0	0	556	605	512	198	30	37	
0	0	0	0	0	555	605	513	201	30	37	
1	0	0	0	0	556	603	513	198	30	37	
2	0	0	0	0	557	605	514	201	31	37	
3	0	0	0	0	556	604	511	197	31	37	
4	0	0	0	0	556	604	515	200	31	38	
5	0	0	0	0	557	604	513	198	31	38	
6	0	0	0	0	557	605	512	200	31	38	
7	0	0	0	0	555	605	513	198	31	38	
8	0	0	0	0	555	605	513	201	31	38	
9	0	0	0	0	556	605	513	198	29	38	
10	0	0	0	0	556	605	512	201	27	38	
11	0	0	0	0	555	605	512	198	28	37	
12	0	0	0	0	556	605	511	200	31	37	
13	0	0	0	0	556	605	512	198	31	37	
14	0	0	0	0	554	604	511	201	31	37	
15	0	0	0	0	556	605	513	198	31	37	
0	0	0	0	0	556	605	512	200	31	37	
1	0	0	0	0	555	604	512	198	31	37	
2	0	0	0	0	557	604	513	200	31	37	
3	0	0	0	0	556	605	512	198	32	37	
4	0	0	0	0	557	604	512	201	31	37	
5	0	0	0	0	556	605	513	198	31	37	
6	0	0	0	0	556	604	513	201	31	36	
7	0	0	0	0	555	604	512	197	31	36	
8	0	0	0	0	556	606	512	201	31	36	
9	0	0	0	0	555	605	514	198	31	36	
10	0	0	0	0	555	605	512	201	31	36	
11	0	0	0	0	554	605	513	198	31	36	
12	0	0	0	0	556	606	513	200	31	36	
13	0	0	0	0	555	607	512	199	31	36	
14	0	0	0	0	556	605	515	201	30	35	
15	0	0	0	0	556	604	512	198	30	35	
0	0	0	0	0	556	603	512	201	30	35	
1	0	0	0	0	556	603	511	198	30	35	
2	0	0	0	0	556	605	510	200	30	35	
3	0	0	0	0	556	603	512	198	30	35	
4	0	0	0	0	558	606	513	200	30	35	
5	0	0	0	0	556	604	512	198	31	35	
6	0	0	0	0	557	605	512	201	31	34	
7	0	0	0	0	555	607	511	198	31	34	
8	0	0	0	0	556	606	514	200	31	34	
9	0	0	0	0	555	605	513	198	31	34	
10	0	0	0	0	555	605	513	201	32	34	
11	0	0	0	0	555	605	513	198	32	34	
12	0	0	0	0	556	604	512	200	32	34	
13	0	0	0	0	555	603	512	198	32	34	
14	0	0	0	0	554	604	514	201	31	33	
15	0	0	0	0	554	606	512	198	31	33	
0	0	0	0	0	556	605	513	201	31	33	
1	0	0	0	0	556	604	512	198	31	33	
2	0	0	0	0	557	603	512	200	31	33	
3	0	0	0	0	556	603	512	198	31	33	
4	0	0	0	0	557	604	512	200	31	33	
5	0	0	0	0	557	604	512	198	31	33	
6	0	0	0	0	556	605	512	200	31	33	
7	0	0	0	0	556	606	513	198	31	32	
8	0	0	0	0	556	605	512	200	31	32	
9	0	0	0	0	556	605	514	198	31	32	
10	0	0	0	0	557	606	512	201	31	32	
11	0	0	0	0	556	605	512	198	31	32	
12	0	0	0	0	557	604	512	201	31	32	
13	0	0	0	0	556	604	514	198	31	32	
14	0	0	0	0	556	604	512	200	31	31	
15	0	0	0	0	556	605	513	198	31	31	
0	0	0	0	0	554	605	512	200	31	31	
1	0	0	0	0	556	604	513	198	31	31	
2	0	0	0	0	556	605	512	201	31	31	
3	0	0	0	0	557	604	513	198	31	31	
4	0	0	0	0	556	603	511	200	31	31	
5	0	0	0	0	556	606	512	198	31	30	
6	0	0	0	0	557	604	512	200	31	30	
7	0	0	0	0	556	605	512	198	31	30	
8	0	0	0	0	557	605	514	200	30	30	
9	0	0	0	0	557	604	512	198	31	30	
10	0	0	0	0	556	605	511	200	31	30	
11	0	0	0	0	557	604	512	198	31	29	
12	0	0	0	0	556	605	511	201	31	29	
13	0	0	0	0	556	605	513	198	30	29	
14	0	0	0	0	555	606	513	201	31	29	
15	0	0	0	0	555	605	513	198	31	29	
0	0	0	0	0	556	604	511	201	30	29	
1	0	0	0	0	555	606	512	198	30	29	
2	0	0	0	0	556	604	512	200	31	28	
3	0	0	0	0	554	605	513	198	31	28	
4	0	0	0	0	558	605	514	201	31	28	
5	0	0	0	0	556	605	513	198	31	28	
6	0	0	0	0	556	604	512	201	31	28	
7	0	0	0	0	555	604	513	199	31	28	
8	0	0	0	0	556	604	511	201	31	28	
9	0	0	0	0	556	604	512	198	31	27	
10	0	0	0	0	557	605	513	201	28	27	
11	0	0	0	0	557	606	512	198	28	27	
12	0	0	0	0	555	605	513	201	30	27	
13	0	0	0	0	555	606	512	198	32	26	
14	0	0	0	0	556	605	512	201	32	26	
15	0	0	0	0	554	606	514	198	32	26	
0	0	0	0	0	555	606	512	201	32	26	
1	0	0	0	0	556	605	514	198	32	26	
2	0	0	0	0	554	604	511	200	32	26	
3	0	0	0	0	556	604	513	198	32	26	
4	0	0	0	0	556	605	513	201	32	25	
5	0	0	0	0	556	604	512	198	32	25	
6	0	0	0	0	556	604	512	201	32	25	
7	0	0	0	0	555	604	512	198	32	25	
8	0	0	0	0	557	605	512	201	32	25	
9	0	0	0	0	557	605	513	198	31	24	
10	0	0	0	0	555	604	511	201	31	24	
11	0	0	0	0	556	604	512	198	31	23	
12	0	0	0	0	556	604	511	201	31	23	
13	0	0	0	0	555	605	512	198	31	23	
14	0	0	0	0	555	606	513	201	31	22	
15	0	0	0	0	556	606	513	198	31	22	
0	0	0	0	0	556	605	511	200	30	22	
1	0	0	0	0	556	605	512	198	30	22	
2	0	0	0	0	555	604	511	201	30	21	
3	0	0	0	0	556	606	512	198	30	21	
4	0	0	0	0	556	606	512	201	30	21	
5	0	0	0	0	554	603	511	198	31	20	
6	0	0	0	0	555	605	512	201	31	20	
7	0	0	0	0	554	604	512	198	31	20	
8	0	0	0	0	555	605	512	201	31	20	
9	0	0	0	0	556	606	513	198	31	19	
10	0	0	0	0	556	606	512	201	31	19	
11	0	0	0	0	554	604	512	199	32	19	
12	0	0	0	0	555	605	512	201	31	19	
13	0	0	0	0	555	607	513	199	31	18	
14	0	0	0	0	556	604	511	201	31	18	
15	0	0	0	0	553	605	512	198	32	18	
0	0	0	0	0	555	606	512	201	31	18	
1	0	0	0	0	555	606	512	198	31	17	
2	0	0	0	0	555	605	512	201	31	17	
3	0	0	0	0	555	604	512	198	31	17	
4	0	0	0	0	555	604	512	201	30	17	
5	0	0	0	0	556	606	511	198	31	16	
6	0	0	0	0	556	606	512	201	31	16	
7	0	0	0	0	553	606	512	199	31	16	
8	0	0	0	0	556	605	513	201	30	15	
9	0	0	0	0	555	606	512	198	31	15	
10	0	0	0	0	556	606	512	201	31	15	
11	0	0	0	0	553	605	512	198	31	15	
12	0	0	0	0	556	604	514	201	31	15	
13	0	0	0	0	555	605	513	199	31	14	
14	0	0	0	0	555	605	511	201	31	14	
15	0	0	0	0	555	605	512	198	31	14	
0	0	0	0	0	555	604	512	201	31	14	
1	0	0	0	0	555	603	512	198	31	14	
2	0	0	0	0	555	603	513	201	31	14	
3	0	0	0	0	554	604	513	199	31	14	
4	0	0	0	0	555	604	513	201	31	14	
5	0	0	0	0	554	605	511	199	31	14	
6	0	0	0	0	555	605	512	201	31	14	
7	0	0	0	0	556	607	513	198	31	14	
8	0	0	0	0	556	606	512	202	31	14	
9	0	0	0	0	554	607	512	198	31	14	
10	0	0	0	0	553	606	512	201	31	14	
11	0	0	0	0	553	606	511	198	31	14	
12	0	0	0	0	555	605	513	201	30	14	
13	0	0	0	0	554	605	512	198	31	14	
14	0	0	0	0	553	605	512	201	30	14	
15	0	0	0	0	553	606	512	198	31	14	
0	0	0	0	0	555	605	512	201	30	14	
1	0	0	0	0	555	605	512	199	31	14	
2	0	0	0	0	554	605	512	202	31	14	
3	0	0	0	0	554	605	510	199	31	14	
4	0	0	0	0	555	606	510	201	30	14	
5	0	0	0	0	555	605	511	199	30	14	
6	0	0	0	0	553	605	510	202	30	14	
7	0	0	0	0	553	604	513	199	31	14	
8	0	0	0	0	554	606	512	202	31	14	
9	0	0	0	0	553	607	513	198	31	14	
10	0	0	0	0	553	606	512	201	31	14	
11	0	0	0	0	553	607	512	199	31	14	
12	0	0	0	0	554	606	511	201	31	14	
13	0	0	0	0	554	606	511	199	32	14	
14	0	0	0	0	553	607	512	201	31	14	
15	0	0	0	0	553	606	512	199	28	14	
0	0	0	0	0	555	607	512	201	27	14	
1	0	0	0	0	553	606	511	199	29	14	
2	0	0	0	0	555	606	511	202	32	14	
3	0	0	0	0	554	606	512	199	32	15	
4	0	0	0	0	555	605	511	201	32	15	
5	0	0	0	0	555	606	511	199	32	15	
6	0	0	0	0	554	604	511	202	32	15	
7	0	0	0	0	553	604	513	199	32	15	
8	0	0	0	0	553	604	512	202	32	15	
9	0	0	0	0	554	606	512	199	32	15	
10	0	0	0	0	553	606	513	202	31	15	
11	0	0	0	0	552	607	513	199	32	15	
12	0	0	0	0	553	607	512	202	31	15	
13	0	0	0	0	553	606	512	199	31	15	
14	0	0	0	0	552	607	514	202	31	15	
15	0	0	0	0	551	606	512	199	31	15	
0	0	0	0	0	553	607	512	202	31	15	
1	0	0	0	0	552	605	512	199	31	15	
2	0	0	0	0	553	607	513	202	31	15	
3	0	0	0	0	553	606	510	199	30	15	
4	0	0	0	0	555	605	510	203	30	15	
5	0	0	0	0	554	606	512	199	30	15	
6	0	0	0	0	553	605	511	202	30	15	
7	0	0	0	0	554	605	512	199	30	15	
8	0	0	0	0	554	605	511	202	30	16	
9	0	0	0	0	552	606	512	199	30	16	
10	0	0	0	0	553	605	512	202	30	16	
11	0	0	0	0	552	605	512	199	30	16	
12	0	0	0	0	554	606	512	202	30	16	
13	0	0	0	0	551	606	510	199	31	16	
14	0	0	0	0	551	606	513	202	31	16	
15	0	0	0	0	552	606	511	199	31	16	
0	0	0	0	0	553	606	512	202	31	16	
1	0	0	0	0	553	607	511	199	31	16	
2	0	0	0	0	553	607	511	202	31	16	
3	0	0	0	0	552	606	513	199	31	16	
4	0	0	0	0	553	606	512	202	31	16	
5	0	0	0	0	551	607	512	199	31	16	
6	0	0	0	0	554	605	512	202	31	16	
7	0	0	0	0	552	606	512	200	31	16	
8	0	0	0	0	555	605	511	202	31	16	
9	0	0	0	0	555	606	513	199	31	16	
10	0	0	0	0	554	606	511	202	31	16	
11	0	0	0	0	553	606	512	199	31	16	
12	0	0	0	0	552	607	512	203	31	16	
13	0	0	0	0	553	606	511	199	31	16	
14	0	0	0	0	552	606	513	202	31	16	
15	0	0	0	0	552	606	511	199	31	16	
0	0	0	0	0	552	607	512	203	31	16	
1	0	0	0	0	552	607	512	199	31	16	
2	0	0	0	0	552	607	511	203	31	16	
3	0	0	0	0	553	606	512	199	31	16	
4	0	0	0	0	553	606	512	203	31	16	
5	0	0	0	0	553	604	511	200	31	16	
6	0	0	0	0	552	607	512	203	31	16	
7	0	0	0	0	552	606	512	200	31	16	
8	0	0	0	0	553	607	512	202	31	17	
9	0	0	0	0	553	607	512	199	31	17	
10	0	0	0	0	552	607	511	203	31	17	
11	0	0	0	0	552	607	512	200	31	17	
12	0	0	0	0	551	607	512	203	31	17	
13	0	0	0	0	552	606	510	199	31	17	
14	0	0	0	0	552	607	511	203	31	18	
15	0	0	0	0	552	607	512	200	31	18	
0	0	0	0	0	551	606	513	203	31	18	
1	0	0	0	0	552	607	512	199	31	18	
2	0	0	0	0	552	606	511	203	30	18	
3	0	0	0	0	553	607	511	200	31	18	
4	0	0	0	0	553	606	510	203	31	19	
5	0	0	0	0	551	606	511	200	31	19	
6	0	0	0	0	553	607	511	204	31	19	
7	0	0	0	0	551	605	513	200	31	19	
8	0	0	0	0	553	607	511	203	31	19	
9	0	0	0	0	552	607	513	200	31	19	
10	0	0	0	0	551	608	513	203	31	19	
11	0	0	0	0	551	608	513	200	31	19	
12	0	0	0	0	551	606	511	203	31	19	
13	0	0	0	0	552	607	512	200	31	19	
14	0	0	0	0	551	607	512	204	31	19	
15	0	0	0	0	551	607	512	200	30	19	
0	0	0	0	0	551	606	512	203	30	19	
1	0	0	0	0	552	606	511	200	30	19	
2	0	0	0	0	552	606	511	204	30	19	
3	0	0	0	0	552	606	512	200	31	20	
4	0	0	0	0	553	606	512	204	31	20	
5	0	0	0	0	551	607	513	201	31	20	
6	0	0	0	0	551	607	514	204	31	20	
7	0	0	0	0	552	607	513	200	31	20	
8	0	0	0	0	552	606	513	204	31	20	
9	0	0	0	0	551	606	511	200	31	20	
10	0	0	0	0	553	606	510	204	29	20	
11	0	0	0	0	551	607	514	200	27	20	
12	0	0	0	0	553	606	511	203	28	20	
13	0	0	0	0	552	607	511	200	31	20	
14	0	0	0	0	552	606	513	204	32	20	
15	0	0	0	0	551	608	511	200	32	20	
0	0	0	0	0	551	607	512	204	32	20	
1	0	0	0	0	551	608	513	200	32	20	
2	0	0	0	0	551	606	513	204	32	20	
3	0	0	0	0	551	605	512	200	32	20	
4	0	0	0	0	553	606	513	204	32	20	
5	0	0	0	0	553	607	512	200	31	21	
6	0	0	0	0	553	608	513	204	31	21	
7	0	0	0	0	553	605	512	201	31	21	
8	0	0	0	0	553	607	512	204	31	20	
9	0	0	0	0	553	608	512	201	31	20	
10	0	0	0	0	552	606	512	204	31	20	
11	0	0	0	0	551	608	512	201	31	20	
12	0	0	0	0	551	607	513	204	31	20	
13	0	0	0	0	551	606	512	201	31	20	
14	0	0	0	0	551	607	513	204	31	20	
15	0	0	0	0	553	606	513	200	30	20	
0	0	0	0	0	552	607	513	204	30	20	
1	0	0	0	0	551	606	513	201	30	20	
2	0	0	0	0	553	607	512	204	30	20	
3	0	0	0	0	551	606	512	201	30	20	
4	0	0	0	0	553	606	511	204	30	20	
5	0	0	0	0	554	604	512	201	30	20	
6	0	0	0	0	552	607	511	204	30	20	
7	0	0	0	0	552	607	514	201	31	20	
8	0	0	0	0	552	605	513	204	31	20	
9	0	0	0	0	551	606	512	201	31	19	
10	0	0	0	0	552	607	512	204	32	19	
11	0	0	0	0	551	606	511	201	32	19	
12	0	0	0	0	551	608	511	204	31	19	
13	0	0	0	0	551	607	511	201	32	19	
14	0	0	0	0	552	608	512	205	32	19	
15	0	0	0	0	551	606	513	201	32	19	
0	0	0	0	0	552	606	512	205	31	19	
1	0	0	0	0	551	606	513	201	31	20	
2	0	0	0	0	552	606	512	204	31	20	
3	0	0	0	0	553	607	513	201	31	20	
4	0	0	0	0	552	608	513	204	31	20	
5	0	0	0	0	553	606	512	201	31	20	
6	0	0	0	0	552	607	514	204	32	19	
7	0	0	0	0	551	606	512	201	31	19	
8	0	0	0	0	552	608	512	204	31	19	
9	0	0	0	0	552	607	513	202	31	19	
10	0	0	0	0	553	607	512	205	31	19	
11	0	0	0	0	552	605	511	201	32	19	
12	0	0	0	0	551	607	512	205	31	19	
13	0	0	0	0	551	606	512	201	31	19	
14	0	0	0	0	552	607	512	205	31	19	
15	0	0	0	0	551	606	512	201	31	19	
0	0	0	0	0	552	606	513	204	31	20	
1	0	0	0	0	551	606	513	201	31	20	
2	0	0	0	0	551	606	513	205	31	20	
3	0	0	0	0	552	605	511	201	31	20	
4	0	0	0	0	552	608	512	204	31	20	
5	0	0	0	0	551	607	511	201	31	20	
6	0	0	0	0	551	608	514	205	31	20	
7	0	0	0	0	552	606	513	202	31	20	
8	0	0	0	0	552	605	513	205	31	20	
9	0	0	0	0	553	606	513	201	31	20	
10	0	0	0	0	552	606	512	205	31	20	
11	0	0	0	0	552	606	513	201	31	20	
12	0	0	0	0	553	606	513	205	31	20	
13	0	0	0	0	552	607	512	201	31	20	
14	0	0	0	0	552	607	512	205	31	20	
15	0	0	0	0	552	607	513	201	31	20	
0	0	0	0	0	552	607	513	205	31	20	
1	0	0	0	0	552	604	511	201	31	20	
2	0	0	0	0	550	607	512	205	31	21	
3	0	0	0	0	553	606	512	202	31	21	
4	0	0	0	0	552	606	512	205	31	21	
5	0	0	0	0	552	606	511	201	31	21	
6	0	0	0	0	553	606	512	205	31	21	
7	0	0	0	0	551	605	513	201	31	21	
8	0	0	0	0	552	606	512	205	31	21	
9	0	0	0	0	552	606	512	202	31	21	
10	0	0	0	0	551	607	512	205	31	21	
11	0	0	0	0	551	606	512	202	31	21	
12	0	0	0	0	552	606	512	205	30	22	
13	0	0	0	0	551	608	514	201	30	22	
14	0	0	0	0	553	607	513	205	30	22	
15	0	0	0	0	551	607	512	202	31	22	
0	0	0	0	0	552	607	513	205	31	22	
1	0	0	0	0	551	607	512	201	31	22	
2	0	0	0	0	551	606	511	205	31	22	
3	0	0	0	0	551	605	513	202	31	22	
4	0	0	0	0	553	606	512	206	31	23	
5	0	0	0	0	551	607	513	202	31	23	
6	0	0	0	0	552	607	512	205	30	23	
7	0	0	0	0	552	606	513	202	28	23	
8	0	0	0	0	553	607	513	205	27	23	
9	0	0	0	0	552	607	512	202	29	24	
10	0	0	0	0	552	608	512	205	32	24	
11	0	0	0	0	551	607	514	201	32	24	
12	0	0	0	0	551	607	513	205	32	24	
13	0	0	0	0	552	607	513	201	32	25	
14	0	0	0	0	552	606	513	205	32	25	
15	0	0	0	0	551	604	513	202	32	25	
0	0	0	0	0	552	606	513	205	31	25	
1	0	0	0	0	552	607	512	201	31	26	
2	0	0	0	0	552	608	513	205	31	26	
3	0	0	0	0	553	606	513	201	32	26	
4	0	0	0	0	553	606	513	205	31	26	
5	0	0	0	0	552	608	513	202	31	26	
6	0	0	0	0	552	607	513	205	31	26	
7	0	0	0	0	551	607	513	202	31	26	
8	0	0	0	0	553	607	513	205	31	26	
9	0	0	0	0	551	606	513	202	31	26	
10	0	0	0	0	551	606	513	205	31	26	
11	0	0	0	0	551	606	514	201	31	26	
12	0	0	0	0	551	608	512	205	30	26	
13	0	0	0	0	552	607	512	201	30	26	
14	0	0	0	0	552	607	512	205	30	26	
15	0	0	0	0	551	607	512	202	30	26	
0	0	0	0	0	553	607	513	205	30	26	
1	0	0	0	0	551	607	513	202	30	26	
2	0	0	0	0	551	606	511	205	30	26	
3	0	0	0	0	553	606	513	202	30	26	
4	0	0	0	0	552	606	513	205	31	26	
5	0	0	0	0	551	606	511	201	31	26	
6	0	0	0	0	552	607	512	204	31	25	
7	0	0	0	0	552	605	512	202	32	25	
8	0	0	0	0	551	606	512	205	32	25	
9	0	0	0	0	551	607	514	201	32	25	
10	0	0	0	0	551	608	513	205	32	25	
11	0	0	0	0	551	606	513	202	32	24	
12	0	0	0	0	552	607	512	206	32	24	
13	0	0	0	0	551	607	512	202	32	24	
14	0	0	0	0	551	607	513	205	32	23	
15	0	0	0	0	550	607	513	202	32	23	
0	0	0	0	0	553	606	512	206	32	22	
1	0	0	0	0	552	607	514	201	32	21	
2	0	0	0	0	551	607	513	205	32	21	
3	0	0	0	0	552	608	511	201	32	20	
4	0	0	0	0	552	608	512	205	32	20	
5	0	0	0	0	552	606	514	202	32	19	
6	0	0	0	0	553	606	513	205	32	19	
7	0	0	0	0	552	607	513	202	32	19	
8	0	0	0	0	552	606	514	205	32	18	
9	0	0	0	0	553	603	511	201	32	18	
10	0	0	0	0	553	606	513	205	32	18	
11	0	0	0	0	551	606	512	202	32	17	
12	0	0	0	0	552	608	511	205	31	17	
13	0	0	0	0	553	607	512	201	32	17	
14	0	0	0	0	552	607	512	205	32	17	
15	0	0	0	0	552	607	511	201	32	17	
0	0	0	0	0	551	607	512	205	31	17	
1	0	0	0	0	550	607	513	201	31	17	
2	0	0	0	0	551	605	513	204	32	17	
3	0	0	0	0	551	607	512	201	32	17	
4	0	0	0	0	552	607	513	205	32	17	
5	0	0	0	0	552	606	511	202	32	17	
6	0	0	0	0	553	606	511	205	32	17	
7	0	0	0	0	552	608	512	201	31	17	
8	0	0	0	0	552	607	511	204	31	17	
9	0	0	0	0	552	608	511	201	32	18	
10	0	0	0	0	551	607	511	205	31	18	
11	0	0	0	0	551	607	510	201	32	18	
12	0	0	0	0	552	607	512	205	31	18	
13	0	0	0	0	551	605	511	201	31	18	
14	0	0	0	0	551	605	512	205	31	18	
15	0	0	0	0	551	606	513	201	32	19	
0	0	0	0	0	551	606	514	204	31	19	
1	0	0	0	0	551	607	512	201	31	19	
2	0	0	0	0	550	606	512	204	31	19	
3	0	0	0	0	552	605	509	201	31	19	
4	0	0	0	0	552	607	512	204	30	20	
5	0	0	0	0	552	608	512	201	31	20	
6	0	0	0	0	552	606	510	205	30	20	
7	0	0	0	0	552	607	511	201	30	20	
8	0	0	0	0	552	607	512	205	30	20	
9	0	0	0	0	552	607	511	201	31	20	
10	0	0	0	0	552	606	511	204	31	21	
11	0	0	0	0	551	606	511	201	31	21	
12	0	0	0	0	551	606	511	205	31	21	
13	0	0	0	0	549	606	511	200	31	21	
14	0	0	0	0	551	606	511	204	31	21	
15	0	0	0	0	550	607	511	201	31	22	
0	0	0	0	0	551	607	511	205	31	22	
1	0	0	0	0	551	607	511	201	30	22	
2	0	0	0	0	551	607	512	204	27	22	
3	0	0	0	0	552	607	511	201	28	22	
4	0	0	0	0	552	607	512	204	31	22	
5	0	0	0	0	551	606	511	201	32	23	
6	0	0	0	0	551	607	512	205	31	23	
7	0	0	0	0	551	605	511	201	32	23	
8	0	0	0	0	550	608	510	204	32	23	
9	0	0	0	0	551	608	510	201	32	23	
10	0	0	0	0	551	608	512	204	31	24	
11	0	0	0	0	552	607	512	201	32	24	
12	0	0	0	0	553	607	511	205	32	24	
13	0	0	0	0	553	606	511	201	32	24	
14	0	0	0	0	553	605	512	204	32	24	
15	0	0	0	0	555	603	513	200	32	24	
0	0	0	0	0	559	606	512	205	32	24	
1	0	0	0	0	561	603	510	201	32	24	
2	0	0	0	0	563	605	510	204	32	25	
3	0	0	0	0	564	604	511	201	32	25	
4	0	0	0	0	561	603	511	204	32	25	
5	0	0	0	0	559	607	512	201	31	25	
6	0	0	0	0	556	607	510	204	31	25	
7	0	0	0	0	553	607	512	201	31	25	
8	0	0	0	0	551	608	511	204	31	24	
9	0	0	0	0	548	609	512	201	31	24	
10	0	0	0	0	545	609	511	204	31	25	
11	0	0	0	0	544	607	511	201	31	25	
12	0	0	0	0	544	610	512	204	32	25	
13	0	0	0	0	541	609	511	202	32	25	
14	0	0	0	0	541	610	512	204	32	25	
15	0	0	0	0	541	610	512	201	33	25	
0	0	0	0	0	540	610	511	203	32	26	
1	0	0	0	0	538	610	510	201	33	26	
2	0	0	0	0	536	611	512	203	33	26	
3	0	0	0	0	536	611	511	200	33	26	
4	0	0	0	0	537	611	509	203	32	26	
5	0	0	0	0	536	609	510	200	32	26	
6	0	0	0	0	537	610	511	203	32	26	
7	0	0	0	0	536	611	512	201	32	26	
8	0	0	0	0	538	611	511	203	31	26	
9	0	0	0	0	539	610	510	201	31	26	
10	0	0	0	0	540	610	512	203	31	26	
11	0	0	0	0	540	611	512	201	31	26	
12	0	0	0	0	539	611	513	203	30	26	
13	0	0	0	0	540	612	512	201	31	25	
14	0	0	0	0	540	611	512	203	31	25	
15	0	0	0	0	541	611	511	200	30	25	
0	0	0	0	0	541	612	511	203	30	25	
1	0	0	0	0	541	613	511	200	30	25	
2	0	0	0	0	543	609	511	203	30	25	
3	0	0	0	0	543	609	512	201	30	25	
4	0	0	0	0	544	609	511	203	30	25	
5	0	0	0	0	543	609	511	201	30	25	
6	0	0	0	0	545	608	513	203	29	25	
7	0	0	0	0	543	610	511	200	30	25	
8	0	0	0	0	544	609	512	203	30	25	
9	0	0	0	0	543	609	511	200	29	25	
10	0	0	0	0	544	609	511	203	29	25	
11	0	0	0	0	545	609	511	200	30	25	
12	0	0	0	0	546	610	512	203	29	25	
13	0	0	0	0	545	610	512	201	29	26	
14	0	0	0	0	546	609	511	204	29	26	
15	0	0	0	0	545	609	513	201	29	26	
0	0	0	0	0	547	610	512	203	29	26	
1	0	0	0	0	549	608	511	201	29	27	
2	0	0	0	0	549	609	512	204	29	27	
3	0	0	0	0	550	608	511	201	29	27	
4	0	0	0	0	551	608	511	204	30	28	
5	0	0	0	0	551	608	511	201	29	28	
6	0	0	0	0	551	607	512	203	29	29	
7	0	0	0	0	550	606	511	200	28	29	
8	0	0	0	0	550	607	511	204	28	30	
9	0	0	0	0	551	607	511	201	29	30	
10	0	0	0	0	550	608	510	204	29	31	
11	0	0	0	0	551	607	510	201	28	32	
12	0	0	0	0	551	607	509	204	29	33	
13	0	0	0	0	552	607	511	201	30	34	
14	0	0	0	0	553	606	509	205	28	34	
15	0	0	0	0	552	607	509	201	29	35	
0	0	0	0	0	551	606	508	205	30	36	
1	0	0	0	0	553	606	510	201	30	37	
2	0	0	0	0	553	606	508	205	30	38	
3	0	0	0	0	554	607	508	201	30	38	
4	0	0	0	0	555	606	507	204	29	39	
5	0	0	0	0	554	605	509	201	27	40	
6	0	0	0	0	554	605	510	204	28	40	
7	0	0	0	0	555	605	508	201	32	41	
8	0	0	0	0	555	606	508	204	31	41	
9	0	0	0	0	553	605	508	201	32	42	
10	0	0	0	0	554	605	508	204	32	42	
11	0	0	0	0	553	604	509	201	32	43	
12	0	0	0	0	554	605	509	204	32	43	
13	0	0	0	0	552	605	511	201	32	43	
14	0	0	0	0	554	605	510	204	32	44	
15	0	0	0	0	553	605	509	201	32	44	
0	0	0	0	0	552	606	508	204	31	44	
1	0	0	0	0	553	605	508	201	31	44	
2	0	0	0	0	553	605	508	204	31	44	
3	0	0	0	0	554	605	508	201	31	44	
4	0	0	0	0	556	605	508	204	31	44	
5	0	0	0	0	556	604	507	201	31	44	
6	0	0	0	0	555	604	508	205	31	44	
7	0	0	0	0	554	604	508	201	30	44	
8	0	0	0	0	555	605	508	205	31	44	
9	0	0	0	0	554	606	508	201	30	44	
10	0	0	0	0	555	604	509	204	30	44	
11	0	0	0	0	555	603	508	201	30	44	
12	0	0	0	0	555	606	508	204	29	44	
13	0	0	0	0	555	605	508	201	30	44	
14	0	0	0	0	555	604	509	205	30	44	
15	0	0	0	0	556	605	510	202	30	44	
0	0	0	0	0	557	604	510	204	30	44	
1	0	0	0	0	555	604	508	201	30	44	
2	0	0	0	0	555	605	510	204	31	44	
3	0	0	0	0	555	606	511	200	32	44	
4	0	0	0	0	556	605	511	205	31	44	
5	0	0	0	0	556	604	509	201	31	44	
6	0	0	0	0	556	605	509	205	31	44	
7	0	0	0	0	556	603	510	201	31	43	
8	0	0	0	0	554	604	511	205	31	43	
9	0	0	0	0	555	605	511	201	31	43	
10	0	0	0	0	556	604	511	204	31	43	
11	0	0	0	0	555	603	511	201	31	43	
12	0	0	0	0	556	604	511	204	31	43	
13	0	0	0	0	556	605	509	201	31	43	
14	0	0	0	0	556	604	512	204	30	43	
15	0	0	0	0	555	605	511	200	31	43	
0	0	0	0	0	556	605	510	204	30	43	
1	0	0	0	0	556	605	512	200	30	43	
2	0	0	0	0	556	604	510	204	31	43	
3	0	0	0	0	556	604	509	201	31	43	
4	0	0	0	0	557	604	510	204	30	42	
5	0	0	0	0	557	604	508	200	31	42	
6	0	0	0	0	558	603	508	204	31	42	
7	0	0	0	0	557	603	508	200	31	42	
8	0	0	0	0	558	602	508	204	30	42	
9	0	0	0	0	557	602	508	200	31	42	
10	0	0	0	0	556	604	509	204	30	42	
11	0	0	0	0	556	604	508	200	30	42	
12	0	0	0	0	558	604	508	204	30	42	
13	0	0	0	0	557	604	509	200	30	42	
14	0	0	0	0	556	605	509	204	30	42	
15	0	0	0	0	558	606	507	201	30	42	
0	0	0	0	0	557	604	509	205	30	42	
1	0	0	0	0	556	604	508	200	30	42	
2	0	0	0	0	557	605	509	204	30	42	
3	0	0	0	0	556	604	509	201	30	41	
4	0	0	0	0	556	604	508	204	29	41	
5	0	0	0	0	556	605	508	201	30	41	
6	0	0	0	0	556	604	509	205	30	41	
7	0	0	0	0	554	603	510	201	31	41	
8	0	0	0	0	556	604	510	205	28	41	
9	0	0	0	0	557	604	509	200	28	41	
10	0	0	0	0	555	602	509	204	29	41	
11	0	0	0	0	555	605	510	200	30	41	
12	0	0	0	0	556	604	508	205	30	41	
13	0	0	0	0	556	605	510	200	30	41	
14	0	0	0	0	557	604	509	204	30	41	
15	0	0	0	0	557	604	509	201	30	41	
0	0	0	0	0	557	604	508	204	30	40	
1	0	0	0	0	556	604	510	201	30	40	
2	0	0	0	0	557	605	511	204	30	40	
3	0	0	0	0	557	605	511	201	27	40	
4	0	0	0	0	555	602	512	205	26	40	
5	0	0	0	0	556	604	511	200	30	39	
6	0	0	0	0	556	605	511	204	31	39	
7	0	0	0	0	555	605	510	200	31	39	
8	0	0	0	0	556	604	510	205	31	39	
9	0	0	0	0	555	604	510	200	31	39	
10	0	0	0	0	555	605	511	205	32	38	
11	0	0	0	0	555	605	510	201	32	38	
12	0	0	0	0	555	604	510	204	32	38	
13	0	0	0	0	556	604	511	200	32	38	
14	0	0	0	0	553	605	509	204	32	37	
15	0	0	0	0	555	603	512	200	32	37	
0	0	0	0	0	555	602	511	204	32	37	
1	0	0	0	0	554	606	511	200	32	37	
2	0	0	0	0	555	605	511	204	32	36	
3	0	0	0	0	556	606	511	200	32	36	
4	0	0	0	0	557	605	510	204	32	36	
5	0	0	0	0	555	605	510	201	32	36	
6	0	0	0	0	556	606	510	204	32	35	
7	0	0	0	0	554	605	510	200	32	35	
8	0	0	0	0	557	603	509	204	32	35	
9	0	0	0	0	556	604	510	201	32	35	
10	0	0	0	0	557	604	511	204	32	35	
11	0	0	0	0	556	604	510	201	32	34	
12	0	0	0	0	558	603	510	204	32	34	
13	0	0	0	0	557	602	509	201	32	34	
14	0	0	0	0	556	603	510	204	32	34	
15	0	0	0	0	556	603	510	201	32	34	
0	0	0	0	0	557	604	510	204	32	34	
1	0	0	0	0	557	604	510	201	33	34	
2	0	0	0	0	556	604	508	204	33	34	
3	0	0	0	0	556	604	510	200	33	34	
4	0	0	0	0	558	603	509	205	32	34	
5	0	0	0	0	558	603	507	201	32	34	
6	0	0	0	0	557	603	510	205	32	34	
7	0	0	0	0	556	603	511	201	32	34	
8	0	0	0	0	558	604	510	204	32	34	
9	0	0	0	0	557	603	509	201	32	34	
10	0	0	0	0	557	603	509	204	31	34	
11	0	0	0	0	557	603	509	201	32	34	
12	0	0	0	0	558	605	510	204	31	34	
13	0	0	0	0	556	604	509	200	31	34	
14	0	0	0	0	557	603	509	204	31	35	
15	0	0	0	0	557	604	508	201	31	35	
0	0	0	0	0	558	604	508	205	31	35	
1	0	0	0	0	557	604	510	200	31	35	
2	0	0	0	0	556	604	510	205	31	35	
3	0	0	0	0	556	604	508	201	32	35	
4	0	0	0	0	556	604	510	205	31	35	
5	0	0	0	0	556	602	508	201	31	35	
6	0	0	0	0	555	604	511	204	31	35	
7	0	0	0	0	555	605	510	200	31	36	
8	0	0	0	0	556	604	509	204	31	36	
9	0	0	0	0	555	604	511	201	31	36	
10	0	0	0	0	556	604	509	205	31	36	
11	0	0	0	0	556	604	509	201	31	36	
12	0	0	0	0	556	606	510	205	30	36	
13	0	0	0	0	556	604	509	200	31	36	
14	0	0	0	0	556	604	511	205	31	36	
15	0	0	0	0	555	604	509	200	31	36	
0	0	0	0	0	558	604	510	205	30	36	
1	0	0	0	0	557	604	510	200	31	36	
2	0	0	0	0	557	604	510	204	30	36	
3	0	0	0	0	556	604	508	201	30	36	
4	0	0	0	0	557	603	510	205	30	36	
5	0	0	0	0	556	604	511	200	30	36	
6	0	0	0	0	555	604	509	205	31	36	
7	0	0	0	0	555	604	510	201	31	36	
8	0	0	0	0	555	604	510	204	31	36	
9	0	0	0	0	555	604	510	201	31	36	
10	0	0	0	0	555	604	508	204	31	36	
11	0	0	0	0	554	604	509	201	31	36	
12	0	0	0	0	556	604	509	205	31	36	
13	0	0	0	0	556	604	508	200	31	36	
14	0	0	0	0	556	603	510	204	30	36	
15	0	0	0	0	557	603	508	200	27	36	
0	0	0	0	0	557	604	510	205	28	36	
1	0	0	0	0	556	605	509	200	31	36	
2	0	0	0	0	556	603	509	205	32	36	
3	0	0	0	0	555	605	510	200	31	36	
4	0	0	0	0	556	604	510	205	32	36	
5	0	0	0	0	556	605	511	201	32	36	
6	0	0	0	0	556	604	508	204	32	36	
7	0	0	0	0	555	603	510	201	32	36	
8	0	0	0	0	556	606	509	204	32	36	
9	0	0	0	0	555	605	511	200	32	36	
10	0	0	0	0	555	603	510	204	32	36	
11	0	0	0	0	554	604	509	200	32	36	
12	0	0	0	0	556	604	509	205	31	36	
13	0	0	0	0	557	605	510	200	32	36	
14	0	0	0	0	557	604	508	205	31	36	
15	0	0	0	0	555	603	510	200	32	36	
0	0	0	0	0	557	604	511	204	31	36	
1	0	0	0	0	555	606	509	200	31	36	
2	0	0	0	0	555	605	508	204	31	35	
3	0	0	0	0	557	604	507	200	31	35	
4	0	0	0	0	556	604	510	205	31	35	
5	0	0	0	0	556	604	509	200	31	35	
6	0	0	0	0	556	604	510	204	31	35	
7	0	0	0	0	555	603	509	200	31	35	
8	0	0	0	0	556	605	509	204	30	35	
9	0	0	0	0	555	604	509	200	31	35	
10	0	0	0	0	555	604	508	205	31	35	
11	0	0	0	0	555	603	509	200	31	34	
12	0	0	0	0	557	604	510	204	31	34	
13	0	0	0	0	556	604	509	200	32	34	
14	0	0	0	0	556	605	510	204	32	34	
15	0	0	0	0	556	604	510	200	32	34	
0	0	0	0	0	556	604	510	204	32	34	
1	0	0	0	0	555	604	510	200	31	34	
2	0	0	0	0	554	604	509	204	31	34	
3	0	0	0	0	555	606	511	200	32	34	
4	0	0	0	0	554	605	510	205	31	33	
5	0	0	0	0	554	605	508	200	32	33	
6	0	0	0	0	556	603	509	204	31	33	
7	0	0	0	0	554	605	510	200	31	33	
8	0	0	0	0	557	604	509	204	31	33	
9	0	0	0	0	555	604	509	200	31	33	
10	0	0	0	0	556	604	508	204	31	32	
11	0	0	0	0	555	604	511	200	31	32	
12	0	0	0	0	555	604	509	204	31	32	
13	0	0	0	0	556	605	511	200	31	32	
14	0	0	0	0	556	603	510	204	31	32	
15	0	0	0	0	556	602	510	201	31	32	
0	0	0	0	0	557	604	508	204	31	32	
1	0	0	0	0	555	605	509	200	31	32	
2	0	0	0	0	556	604	510	205	31	31	
3	0	0	0	0	554	604	510	200	31	31	
4	0	0	0	0	555	605	509	204	31	31	
5	0	0	0	0	556	605	510	200	31	31	
6	0	0	0	0	555	605	510	205	31	31	
7	0	0	0	0	555	606	510	200	31	31	
8	0	0	0	0	555	604	509	205	31	30	
9	0	0	0	0	555	604	510	200	31	30	
10	0	0	0	0	556	603	508	204	31	30	
11	0	0	0	0	555	605	509	200	31	30	
12	0	0	0	0	557	604	509	204	31	29	
13	0	0	0	0	556	604	510	200	31	29	
14	0	0	0	0	555	603	510	204	31	29	
15	0	0	0	0	555	603	508	200	31	29	
0	0	0	0	0	556	604	510	205	31	29	
1	0	0	0	0	555	603	510	200	31	28	
2	0	0	0	0	555	605	510	204	31	28	
3	0	0	0	0	556	604	510	200	31	28	
4	0	0	0	0	556	605	508	205	31	28	
5	0	0	0	0	555	606	511	200	31	28	
6	0	0	0	0	555	605	510	204	32	28	
7	0	0	0	0	554	604	508	200	32	28	
8	0	0	0	0	556	604	510	204	31	28	
9	0	0	0	0	554	604	509	200	32	28	
10	0	0	0	0	556	605	510	204	32	27	
11	0	0	0	0	554	604	510	200	32	27	
12	0	0	0	0	556	603	509	205	30	27	
13	0	0	0	0	555	603	510	200	28	27	
14	0	0	0	0	555	604	510	205	28	27	
15	0	0	0	0	555	605	509	200	30	27	
0	0	0	0	0	556	604	508	205	32	26	
1	0	0	0	0	555	605	508	200	32	26	
2	0	0	0	0	553	606	509	204	32	26	
3	0	0	0	0	556	604	509	201	32	26	
4	0	0	0	0	555	604	511	205	32	26	
5	0	0	0	0	556	605	510	200	32	26	
6	0	0	0	0	555	605	508	205	32	26	
7	0	0	0	0	555	605	508	200	31	26	
8	0	0	0	0	555	605	510	205	32	26	
9	0	0	0	0	555	604	510	200	32	25	
10	0	0	0	0	555	604	507	204	32	25	
11	0	0	0	0	554	604	511	200	31	25	
12	0	0	0	0	555	604	510	205	31	25	
13	0	0	0	0	554	604	510	200	32	25	
14	0	0	0	0	555	604	511	205	31	24	
15	0	0	0	0	554	605	510	200	31	24	
0	0	0	0	0	556	605	509	205	31	24	
1	0	0	0	0	556	603	510	200	30	24	
2	0	0	0	0	556	604	509	205	30	24	
3	0	0	0	0	557	605	508	200	30	24	
4	0	0	0	0	556	603	509	205	30	24	
5	0	0	0	0	556	604	508	201	30	24	
6	0	0	0	0	555	604	509	205	30	23	
7	0	0	0	0	554	606	511	200	30	23	
8	0	0	0	0	555	604	508	205	30	23	
9	0	0	0	0	554	604	508	200	31	23	
10	0	0	0	0	554	604	509	205	31	23	
11	0	0	0	0	554	604	509	200	31	23	
12	0	0	0	0	553	604	510	204	32	23	
13	0	0	0	0	555	604	510	200	32	23	
14	0	0	0	0	555	605	511	205	32	23	
15	0	0	0	0	556	604	509	200	32	23	
0	0	0	0	0	556	603	509	205	32	23	
1	0	0	0	0	555	603	510	201	32	23	
2	0	0	0	0	555	604	510	205	32	23	
3	0	0	0	0	554	605	510	200	32	23	
4	0	0	0	0	554	606	508	205	31	23	
5	0	0	0	0	554	604	510	201	31	23	
6	0	0	0	0	556	605	510	205	31	23	
7	0	0	0	0	555	603	509	200	31	23	
8	0	0	0	0	555	604	509	205	31	22	
9	0	0	0	0	554	606	510	200	32	22	
10	0	0	0	0	554	604	508	205	31	22	
11	0	0	0	0	555	605	508	200	31	22	
12	0	0	0	0	556	605	508	205	31	22	
13	0	0	0	0	554	604	510	201	31	22	
14	0	0	0	0	556	604	509	205	31	22	
15	0	0	0	0	555	605	510	201	32	22	
0	0	0	0	0	555	605	510	205	31	22	
1	0	0	0	0	555	604	509	201	31	22	
2	0	0	0	0	555	604	510	205	31	22	
3	0	0	0	0	555	605	510	200	31	22	
4	0	0	0	0	555	604	509	205	31	22	
5	0	0	0	0	553	604	509	201	31	22	
6	0	0	0	0	554	603	509	205	31	22	
7	0	0	0	0	553	604	510	200	32	22	
8	0	0	0	0	554	604	510	205	31	22	
9	0	0	0	0	555	606	508	200	31	22	
10	0	0	0	0	556	606	508	205	31	22	
11	0	0	0	0	555	606	510	201	31	22	
12	0	0	0	0	555	605	508	205	31	22	
13	0	0	0	0	555	605	510	201	31	22	
14	0	0	0	0	555	605	509	205	31	22	
15	0	0	0	0	556	603	510	200	31	22	
0	0	0	0	0	556	604	509	205	31	21	
1	0	0	0	0	555	605	510	201	31	21	
2	0	0	0	0	555	605	510	205	31	21	
3	0	0	0	0	555	604	510	201	31	21	
4	0	0	0	0	556	604	508	205	31	20	
5	0	0	0	0	556	605	511	200	31	20	
6	0	0	0	0	554	605	510	205	31	20	
7	0	0	0	0	555	606	511	201	31	19	
8	0	0	0	0	556	606	510	205	31	19	
9	0	0	0	0	554	603	510	201	31	19	
10	0	0	0	0	555	604	510	205	31	18	
11	0	0	0	0	553	604	511	201	31	18	
12	0	0	0	0	554	604	510	206	32	18	
13	0	0	0	0	554	604	510	201	31	18	
14	0	0	0	0	555	605	510	206	31	17	
15	0	0	0	0	555	605	511	201	31	17	
0	0	0	0	0	555	606	509	206	30	17	
1	0	0	0	0	555	605	512	201	28	17	
2	0	0	0	0	555	606	510	206	27	16	
3	0	0	0	0	556	605	511	201	29	16	
4	0	0	0	0	557	605	510	205	31	16	
5	0	0	0	0	556	604	510	201	32	16	
6	0	0	0	0	556	605	511	206	32	16	
7	0	0	0	0	556	605	511	201	32	15	
8	0	0	0	0	556	605	510	206	31	15	
9	0	0	0	0	556	604	510	201	32	15	
10	0	0	0	0	556	605	511	205	31	15	
11	0	0	0	0	554	605	511	201	32	15	
12	0	0	0	0	556	605	508	205	31	15	
13	0	0	0	0	555	606	511	202	31	14	
14	0	0	0	0	555	606	509	205	32	14	
15	0	0	0	0	555	604	509	202	31	14	
0	0	0	0	0	557	603	510	206	31	14	
1	0	0	0	0	557	604	509	202	31	13	
2	0	0	0	0	556	604	511	206	31	13	
3	0	0	0	0	556	603	510	202	30	13	
4	0	0	0	0	555	604	511	206	30	13	
5	0	0	0	0	555	604	509	202	30	12	
6	0	0	0	0	556	604	511	205	30	12	
7	0	0	0	0	556	604	510	201	30	12	
8	0	0	0	0	558	604	511	206	29	12	
9	0	0	0	0	557	604	510	202	30	12	
10	0	0	0	0	557	605	508	206	30	12	
11	0	0	0	0	557	605	510	203	29	12	
12	0	0	0	0	557	604	510	205	30	12	
13	0	0	0	0	555	604	511	202	29	12	
14	0	0	0	0	554	602	511	205	29	12	
15	0	0	0	0	554	602	512	202	29	12	
0	0	0	0	0	556	602	512	206	30	12	
1	0	0	0	0	555	605	512	202	31	12	
2	0	0	0	0	556	605	511	206	30	12	
3	0	0	0	0	557	605	511	203	30	13	
4	0	0	0	0	558	605	511	206	30	13	
5	0	0	0	0	558	604	511	203	31	13	
6	0	0	0	0	557	603	511	206	30	13	
7	0	0	0	0	558	604	511	202	31	14	
8	0	0	0	0	558	601	510	206	30	14	
9	0	0	0	0	558	601	511	202	31	14	
10	0	0	0	0	558	603	511	207	31	15	
11	0	0	0	0	559	601	511	203	31	15	
12	0	0	0	0	559	603	511	207	30	16	
13	0	0	0	0	560	602	512	203	31	16	
14	0	0	0	0	559	603	508	207	30	17	
15	0	0	0	0	558	602	510	202	31	17	
0	0	0	0	0	558	603	510	207	31	18	
1	0	0	0	0	558	603	510	203	31	19	
2	0	0	0	0	558	601	511	207	31	19	
3	0	0	0	0	558	602	510	202	31	20	
4	0	0	0	0	558	604	510	207	30	20	
5	0	0	0	0	556	604	510	203	31	21	
6	0	0	0	0	558	603	510	206	31	22	
7	0	0	0	0	557	603	508	202	31	22	
8	0	0	0	0	558	601	510	206	31	23	
9	0	0	0	0	559	602	509	202	31	23	
10	0	0	0	0	559	602	510	207	31	24	
11	0	0	0	0	559	603	512	203	31	25	
12	0	0	0	0	558	602	512	207	30	25	
13	0	0	0	0	558	603	510	203	31	26	
14	0	0	0	0	558	603	511	207	31	26	
15	0	0	0	0	558	601	511	202	31	27	
0	0	0	0	0	558	603	511	207	30	27	
1	0	0	0	0	558	601	509	202	30	27	
2	0	0	0	0	559	603	508	207	31	28	
3	0	0	0	0	559	602	509	203	30	28	
4	0	0	0	0	558	603	511	207	30	28	
5	0	0	0	0	558	603	509	202	31	29	
6	0	0	0	0	558	603	509	207	30	29	
7	0	0	0	0	558	603	509	203	30	29	
8	0	0	0	0	559	603	510	207	30	29	
9	0	0	0	0	558	603	508	203	31	30	
10	0	0	0	0	557	602	509	207	31	30	
11	0	0	0	0	558	604	511	203	31	30	
12	0	0	0	0	558	603	510	207	31	30	
13	0	0	0	0	558	602	509	203	31	30	
14	0	0	0	0	558	603	509	207	31	31	
15	0	0	0	0	558	603	510	203	30	31	
0	0	0	0	0	557	604	510	207	30	31	
1	0	0	0	0	557	604	509	203	30	31	
2	0	0	0	0	558	602	511	207	31	31	
3	0	0	0	0	556	603	509	203	32	32	
4	0	0	0	0	557	603	510	207	32	32	
5	0	0	0	0	558	604	510	203	31	32	
6	0	0	0	0	559	603	508	207	31	32	
7	0	0	0	0	558	603	509	203	31	32	
8	0	0	0	0	558	604	509	207	31	32	
9	0	0	0	0	558	602	511	203	31	32	
10	0	0	0	0	557	601	510	207	28	33	
11	0	0	0	0	558	603	510	203	27	33	
12	0	0	0	0	559	602	509	207	29	33	
13	0	0	0	0	559	602	510	203	32	33	
14	0	0	0	0	559	601	509	208	32	33	
15	0	0	0	0	559	602	511	203	32	33	
0	0	0	0	0	558	602	511	208	32	32	
1	0	0	0	0	559	602	510	203	32	32	
2	0	0	0	0	560	600	510	208	32	32	
3	0	0	0	0	558	603	510	203	32	32	
4	0	0	0	0	561	603	508	207	32	32	
5	0	0	0	0	559	602	509	203	32	32	
6	0	0	0	0	559	601	510	207	32	32	
7	0	0	0	0	559	601	511	203	32	32	
8	0	0	0	0	560	602	510	207	32	32	
9	0	0	0	0	560	601	510	203	32	32	
10	0	0	0	0	559	602	511	207	32	32	
11	0	0	0	0	559	603	508	204	32	32	
12	0	0	0	0	560	602	510	207	31	32	
13	0	0	0	0	560	603	510	203	32	32	
14	0	0	0	0	558	603	510	207	32	32	
15	0	0	0	0	559	603	508	203	32	32	
0	0	0	0	0	559	603	510	207	30	32	
1	0	0	0	0	558	600	510	204	29	32	
2	0	0	0	0	558	601	512	207	31	32	
3	0	0	0	0	558	602	512	204	31	32	
4	0	0	0	0	557	604	512	207	30	32	
5	0	0	0	0	556	604	511	204	30	32	
6	0	0	0	0	556	605	510	207	30	32	
7	0	0	0	0	555	606	512	204	30	32	
8	0	0	0	0	555	606	511	207	31	32	
9	0	0	0	0	554	607	510	204	31	32	
10	0	0	0	0	553	605	512	207	31	31	
11	0	0	0	0	552	606	510	203	31	31	
12	0	0	0	0	551	605	510	207	32	31	
13	0	0	0	0	552	604	512	204	32	31	
14	0	0	0	0	552	606	511	206	32	30	
15	0	0	0	0	552	604	512	204	32	30	
0	0	0	0	0	555	605	510	206	32	29	
1	0	0	0	0	554	605	511	204	33	29	
2	0	0	0	0	555	605	511	207	33	29	
3	0	0	0	0	555	605	511	204	33	28	
4	0	0	0	0	557	604	510	207	33	28	
5	0	0	0	0	558	605	510	204	33	28	
6	0	0	0	0	557	603	510	207	33	28	
7	0	0	0	0	558	603	510	204	32	27	
8	0	0	0	0	558	604	511	207	32	27	
9	0	0	0	0	558	603	510	204	32	27	
10	0	0	0	0	557	604	510	207	32	27	
11	0	0	0	0	557	604	511	204	32	27	
12	0	0	0	0	558	603	511	207	32	26	
13	0	0	0	0	556	603	511	204	32	26	
14	0	0	0	0	557	603	510	207	32	26	
15	0	0	0	0	557	602	511	204	32	25	
0	0	0	0	0	558	603	511	207	31	25	
1	0	0	0	0	560	603	510	204	31	24	
2	0	0	0	0	559	601	510	207	31	24	
3	0	0	0	0	559	603	509	204	31	24	
4	0	0	0	0	560	604	510	207	31	23	
5	0	0	0	0	558	603	511	204	31	23	
6	0	0	0	0	558	603	512	207	31	22	
7	0	0	0	0	556	604	511	204	31	22	
8	0	0	0	0	557	602	510	207	30	22	
9	0	0	0	0	554	604	511	204	31	21	
10	0	0	0	0	555	603	512	207	30	21	
11	0	0	0	0	555	603	511	204	30	21	
12	0	0	0	0	556	604	512	206	30	21	
13	0	0	0	0	557	604	511	204	30	20	
14	0	0	0	0	557	604	511	207	30	20	
15	0	0	0	0	557	605	511	205	30	20	
0	0	0	0	0	557	605	512	207	30	20	
1	0	0	0	0	556	604	512	204	30	19	
2	0	0	0	0	555	606	512	207	30	19	
3	0	0	0	0	552	604	513	204	30	19	
4	0	0	0	0	552	605	512	207	30	19	
5	0	0	0	0	554	605	513	204	30	19	
6	0	0	0	0	554	605	513	206	30	19	
7	0	0	0	0	554	605	512	204	30	18	
8	0	0	0	0	556	604	512	207	30	18	
9	0	0	0	0	556	605	513	205	30	18	
10	0	0	0	0	556	606	512	207	29	18	
11	0	0	0	0	555	606	512	205	29	18	
12	0	0	0	0	556	605	513	207	29	18	
13	0	0	0	0	555	606	513	204	30	18	
14	0	0	0	0	554	605	512	206	30	18	
15	0	0	0	0	554	605	514	204	30	18	
0	0	0	0	0	553	606	513	207	30	18	
1	0	0	0	0	552	606	514	204	30	18	
2	0	0	0	0	552	604	515	207	30	18	
3	0	0	0	0	551	604	516	204	30	17	
4	0	0	0	0	552	606	515	207	29	17	
5	0	0	0	0	552	606	515	205	28	17	
6	0	0	0	0	553	606	513	207	25	17	
7	0	0	0	0	552	606	514	204	27	17	
8	0	0	0	0	553	606	513	207	30	17	
9	0	0	0	0	552	606	513	204	31	16	
10	0	0	0	0	552	607	515	207	31	16	
11	0	0	0	0	551	605	513	205	31	16	
12	0	0	0	0	552	606	515	207	31	16	
13	0	0	0	0	551	606	514	204	31	16	
14	0	0	0	0	550	606	515	207	31	15	
15	0	0	0	0	551	607	512	205	31	15	
0	0	0	0	0	552	609	513	207	31	15	
1	0	0	0	0	551	607	513	204	31	15	
2	0	0	0	0	552	608	512	207	31	14	
3	0	0	0	0	550	609	514	204	31	14	
4	0	0	0	0	551	607	513	207	31	14	
5	0	0	0	0	551	606	513	204	31	14	
6	0	0	0	0	551	605	513	207	31	13	
7	0	0	0	0	551	604	513	204	31	13	
8	0	0	0	0	551	604	514	207	31	13	
9	0	0	0	0	551	606	514	205	31	13	
10	0	0	0	0	550	605	513	207	31	13	
11	0	0	0	0	551	607	512	205	30	12	
12	0	0	0	0	551	608	512	207	30	12	
13	0	0	0	0	551	606	514	204	30	12	
14	0	0	0	0	551	606	515	207	30	12	
15	0	0	0	0	551	606	512	205	30	12	
0	0	0	0	0	553	606	514	207	30	12	
1	0	0	0	0	552	606	513	205	30	12	
2	0	0	0	0	551	607	512	207	31	12	
3	0	0	0	0	551	606	513	204	31	12	
4	0	0	0	0	553	606	514	207	31	12	
5	0	0	0	0	554	607	513	204	32	12	
6	0	0	0	0	552	607	513	207	32	12	
7	0	0	0	0	553	606	513	205	32	12	
8	0	0	0	0	553	608	513	207	32	12	
9	0	0	0	0	552	606	513	204	32	12	
10	0	0	0	0	552	606	514	207	32	12	
11	0	0	0	0	552	605	513	205	32	12	
12	0	0	0	0	551	606	514	207	31	12	
13	0	0	0	0	551	605	513	204	32	12	
14	0	0	0	0	553	606	513	207	31	12	
15	0	0	0	0	554	605	514	205	31	12	
0	0	0	0	0	551	606	513	207	31	12	
1	0	0	0	0	551	606	513	205	31	12	
2	0	0	0	0	552	606	513	207	31	12	
3	0	0	0	0	550	606	514	205	31	12	
4	0	0	0	0	551	608	514	207	31	12	
5	0	0	0	0	550	607	514	205	31	12	
6	0	0	0	0	552	606	513	207	31	13	
7	0	0	0	0	552	606	514	205	31	13	
8	0	0	0	0	553	604	514	207	31	13	
9	0	0	0	0	553	604	515	205	31	13	
10	0	0	0	0	553	603	514	207	31	13	
11	0	0	0	0	553	604	515	205	31	13	
12	0	0	0	0	552	603	513	208	31	13	
13	0	0	0	0	551	605	517	205	31	13	
14	0	0	0	0	551	607	515	207	31	13	
15	0	0	0	0	550	605	516	205	31	13	
0	0	0	0	0	551	608	515	208	31	13	
1	0	0	0	0	549	607	515	205	31	12	
2	0	0	0	0	548	608	515	208	31	12	
3	0	0	0	0	549	608	517	205	31	12	
4	0	0	0	0	549	609	518	207	31	12	
5	0	0	0	0	546	608	517	205	31	12	
6	0	0	0	0	545	609	516	207	31	12	
7	0	0	0	0	543	607	520	205	31	12	
8	0	0	0	0	546	610	519	208	31	11	
9	0	0	0	0	541	611	519	205	31	11	
10	0	0	0	0	543	610	519	208	31	11	
11	0	0	0	0	542	610	519	206	31	11	
12	0	0	0	0	542	611	519	207	31	11	
13	0	0	0	0	542	613	520	205	31	11	
14	0	0	0	0	543	611	522	207	31	11	
15	0	0	0	0	542	610	521	205	31	11	
0	0	0	0	0	543	610	521	208	30	11	
1	0	0	0	0	544	609	523	205	30	11	
2	0	0	0	0	542	611	522	207	30	10	
3	0	0	0	0	542	611	523	205	30	10	
4	0	0	0	0	542	611	523	208	30	10	
5	0	0	0	0	543	611	525	205	30	10	
6	0	0	0	0	541	611	522	208	30	10	
7	0	0	0	0	541	609	523	205	31	10	
8	0	0	0	0	542	611	523	207	30	10	
9	0	0	0	0	540	610	523	205	30	10	
10	0	0	0	0	540	610	525	207	30	10	
11	0	0	0	0	540	611	525	205	30	10	
12	0	0	0	0	540	610	525	207	30	10	
13	0	0	0	0	542	612	523	205	29	10	
14	0	0	0	0	540	611	524	208	26	10	
15	0	0	0	0	538	609	525	205	27	10	
0	0	0	0	0	540	612	526	207	31	10	
1	0	0	0	0	540	612	524	205	31	10	
2	0	0	0	0	541	609	525	208	31	10	
3	0	0	0	0	540	608	527	205	31	10	
4	0	0	0	0	542	608	526	207	31	10	
5	0	0	0	0	542	611	527	205	31	10	
6	0	0	0	0	542	609	527	208	31	10	
7	0	0	0	0	541	608	527	205	31	10	
8	0	0	0	0	542	611	527	207	31	10	
9	0	0	0	0	541	611	527	205	30	10	
10	0	0	0	0	539	609	528	208	30	10	
11	0	0	0	0	539	608	528	205	30	10	
12	0	0	0	0	540	609	528	207	30	10	
13	0	0	0	0	541	609	527	204	30	10	
14	0	0	0	0	541	610	530	207	30	10	
15	0	0	0	0	540	610	529	205	30	10	
0	0	0	0	0	541	609	530	207	30	10	
1	0	0	0	0	543	610	530	205	30	10	
2	0	0	0	0	542	611	531	207	30	11	
3	0	0	0	0	541	611	531	205	30	10	
4	0	0	0	0	541	610	529	208	29	11	
5	0	0	0	0	543	611	530	205	29	11	
6	0	0	0	0	542	609	530	207	30	11	
7	0	0	0	0	542	610	529	204	29	11	
8	0	0	0	0	543	609	530	208	29	11	
9	0	0	0	0	543	610	533	204	29	11	
10	0	0	0	0	541	611	531	208	30	11	
11	0	0	0	0	541	611	532	205	30	11	
12	0	0	0	0	541	612	532	207	30	11	
13	0	0	0	0	542	610	531	205	31	11	
14	0	0	0	0	542	612	532	207	31	11	
15	0	0	0	0	541	610	531	204	31	11	
0	0	0	0	0	543	611	531	207	31	12	
1	0	0	0	0	542	610	532	204	31	12	
2	0	0	0	0	542	609	532	207	31	12	
3	0	0	0	0	542	609	534	204	31	12	
4	0	0	0	0	543	610	533	207	31	12	
5	0	0	0	0	543	610	533	204	31	12	
6	0	0	0	0	543	609	533	207	31	12	
7	0	0	0	0	543	608	533	205	31	12	
8	0	0	0	0	544	610	533	207	30	12	
9	0	0	0	0	542	610	534	205	31	13	
10	0	0	0	0	543	609	533	207	31	13	
11	0	0	0	0	543	610	534	204	31	13	
12	0	0	0	0	544	609	535	207	31	13	
13	0	0	0	0	543	609	532	204	31	13	
14	0	0	0	0	545	608	532	207	31	13	
15	0	0	0	0	545	612	534	204	31	13	
0	0	0	0	0	544	608	532	207	31	13	
1	0	0	0	0	543	605	534	205	31	13	
2	0	0	0	0	544	608	534	207	31	13	
3	0	0	0	0	544	608	534	204	31	13	
4	0	0	0	0	543	607	534	208	31	13	
5	0	0	0	0	543	610	535	204	31	13	
6	0	0	0	0	543	609	535	207	31	13	
7	0	0	0	0	543	608	534	205	31	13	
8	0	0	0	0	544	609	534	207	30	13	
9	0	0	0	0	544	609	534	204	31	13	
10	0	0	0	0	543	609	532	207	30	13	
11	0	0	0	0	544	608	533	204	31	13	
12	0	0	0	0	545	608	534	207	31	13	
13	0	0	0	0	544	608	533	204	31	13	
14	0	0	0	0	544	608	534	207	31	13	
15	0	0	0	0	545	607	534	204	31	13	
0	0	0	0	0	546	607	533	207	31	13	
1	0	0	0	0	545	607	534	204	31	13	
2	0	0	0	0	545	606	534	207	31	13	
3	0	0	0	0	545	607	535	204	31	13	
4	0	0	0	0	546	608	535	207	31	13	
5	0	0	0	0	546	608	534	204	31	13	
6	0	0	0	0	546	608	533	207	31	13	
7	0	0	0	0	545	608	534	204	30	13	
8	0	0	0	0	545	608	533	207	30	13	
9	0	0	0	0	546	608	533	204	31	13	
10	0	0	0	0	545	607	535	207	32	13	
11	0	0	0	0	546	608	533	204	32	13	
12	0	0	0	0	546	607	533	207	31	13	
13	0	0	0	0	545	607	534	204	31	13	
14	0	0	0	0	546	609	534	207	32	13	
15	0	0	0	0	544	608	534	204	31	13	
0	0	0	0	0	545	607	535	207	31	13	
1	0	0	0	0	545	608	534	204	31	13	
2	0	0	0	0	544	606	534	207	28	13	
3	0	0	0	0	545	606	535	205	29	13	
4	0	0	0	0	546	607	534	207	32	13	
5	0	0	0	0	544	608	534	204	32	13	
6	0	0	0	0	545	607	532	207	32	13	
7	0	0	0	0	546	606	533	204	32	13	
8	0	0	0	0	546	607	535	208	32	13	
9	0	0	0	0	546	605	535	204	32	13	
10	0	0	0	0	546	606	536	207	32	13	
11	0	0	0	0	545	606	534	205	32	13	
12	0	0	0	0	547	608	534	207	32	13	
13	0	0	0	0	546	608	535	204	32	13	
14	0	0	0	0	546	606	536	207	32	13	
15	0	0	0	0	545	607	536	204	32	13	
0	0	0	0	0	547	606	534	207	32	13	
1	0	0	0	0	545	607	536	204	32	13	
2	0	0	0	0	548	606	534	207	32	13	
3	0	0	0	0	545	606	534	204	31	13	
4	0	0	0	0	547	606	534	207	31	13	
5	0	0	0	0	546	606	534	204	31	13	
6	0	0	0	0	547	607	534	207	31	13	
7	0	0	0	0	547	607	535	203	31	13	
8	0	0	0	0	548	607	535	207	31	13	
9	0	0	0	0	547	606	534	204	31	13	
10	0	0	0	0	548	606	535	207	31	13	
11	0	0	0	0	546	607	534	204	31	12	
12	0	0	0	0	546	607	533	207	31	12	
13	0	0	0	0	548	606	534	204	31	12	
14	0	0	0	0	548	607	534	207	32	12	
15	0	0	0	0	547	606	534	204	32	12	
0	0	0	0	0	547	607	532	207	32	12	
1	0	0	0	0	548	607	536	205	32	12	
2	0	0	0	0	546	606	534	207	32	12	
3	0	0	0	0	546	605	536	205	32	12	
4	0	0	0	0	547	606	534	207	32	12	
5	0	0	0	0	547	605	535	204	32	12	
6	0	0	0	0	546	604	535	207	32	12	
7	0	0	0	0	546	607	534	204	32	12	
8	0	0	0	0	547	607	535	207	32	12	
9	0	0	0	0	546	605	536	203	32	12	
10	0	0	0	0	548	607	535	207	32	12	
11	0	0	0	0	548	605	535	203	31	12	
12	0	0	0	0	548	607	535	207	31	12	
13	0	0	0	0	548	606	533	204	31	12	
14	0	0	0	0	547	607	535	207	31	13	
15	0	0	0	0	547	607	535	203	31	13	
0	0	0	0	0	547	607	535	207	31	13	
1	0	0	0	0	546	607	536	204	31	13	
2	0	0	0	0	547	607	534	207	31	13	
3	0	0	0	0	547	607	534	202	31	13	
4	0	0	0	0	547	608	534	207	31	13	
5	0	0	0	0	547	606	536	203	31	13	
6	0	0	0	0	546	606	534	206	31	13	
7	0	0	0	0	547	607	534	204	31	13	
8	0	0	0	0	547	606	533	207	31	13	
9	0	0	0	0	547	608	535	207	31	14	
10	0	0	0	0	549	607	534	206	31	14	
11	0	0	0	0	548	608	533	202	31	14	
12	0	0	0	0	549	607	533	207	31	14	
13	0	0	0	0	547	606	534	198	31	14	
14	0	0	0	0	547	607	535	206	31	14	
15	0	0	0	0	547	606	534	203	31	14	
0	0	0	0	0	547	606	532	206	31	14	
1	0	0	0	0	546	605	534	203	31	14	
2	0	0	0	0	548	606	533	207	31	14	
3	0	0	0	0	547	606	533	203	31	15	
4	0	0	0	0	547	607	534	207	31	15	
5	0	0	0	0	547	607	535	202	31	15	
6	0	0	0	0	547	606	535	206	31	15	
7	0	0	0	0	547	607	535	204	31	15	
8	0	0	0	0	548	607	534	207	30	15	
9	0	0	0	0	548	606	534	204	31	15	
10	0	0	0	0	547	608	536	207	31	15	
11	0	0	0	0	547	607	535	202	31	16	
12	0	0	0	0	548	606	533	207	31	16	
13	0	0	0	0	548	608	534	203	31	16	
14	0	0	0	0	548	606	534	207	31	16	
15	0	0	0	0	547	606	534	199	31	16	
0	0	0	0	0	548	607	533	207	31	16	
1	0	0	0	0	547	607	534	203	32	16	
2	0	0	0	0	547	606	534	207	31	17	
3	0	0	0	0	546	606	534	203	28	17	
4	0	0	0	0	547	608	534	207	27	17	
5	0	0	0	0	547	608	534	205	29	17	
6	0	0	0	0	547	607	534	204	32	17	
7	0	0	0	0	547	608	533	202	31	17	
8	0	0	0	0	547	607	535	207	32	18	
9	0	0	0	0	547	607	535	201	32	18	
10	0	0	0	0	546	607	533	205	32	18	
11	0	0	0	0	546	607	534	203	32	18	
12	0	0	0	0	547	606	535	207	32	18	
13	0	0	0	0	547	607	534	203	32	18	
14	0	0	0	0	547	606	533	205	32	19	
15	0	0	0	0	546	604	534	202	32	19	
0	0	0	0	0	547	606	534	207	31	19	
1	0	0	0	0	547	606	534	203	31	19	
2	0	0	0	0	547	606	534	205	31	19	
3	0	0	0	0	546	605	532	203	31	19	
4	0	0	0	0	547	607	533	206	31	19	
5	0	0	0	0	547	609	534	204	31	19	
6	0	0	0	0	546	608	534	206	31	19	
7	0	0	0	0	547	607	535	201	31	19	
8	0	0	0	0	547	607	532	205	31	19	
9	0	0	0	0	546	607	533	203	31	19	
10	0	0	0	0	546	605	533	205	30	19	
11	0	0	0	0	546	607	534	202	30	19	
12	0	0	0	0	547	608	534	203	30	19	
13	0	0	0	0	545	607	533	199	30	19	
14	0	0	0	0	547	607	534	209	30	19	
15	0	0	0	0	545	607	533	201	31	19	
0	0	0	0	0	547	608	534	205	31	19	
1	0	0	0	0	545	606	534	209	31	19	
2	0	0	0	0	547	607	533	208	32	19	
3	0	0	0	0	546	608	533	205	32	19	
4	0	0	0	0	547	608	533	206	32	19	
5	0	0	0	0	547	606	533	205	32	19	
6	0	0	0	0	546	607	531	206	32	20	
7	0	0	0	0	546	607	532	205	32	20	
8	0	0	0	0	547	606	532	206	32	20	
9	0	0	0	0	545	607	533	202	31	20	
10	0	0	0	0	545	606	534	206	31	20	
11	0	0	0	0	546	607	534	203	31	20	
12	0	0	0	0	546	607	533	205	31	20	
13	0	0	0	0	545	609	535	203	31	20	
14	0	0	0	0	547	608	532	205	31	20	
15	0	0	0	0	547	608	533	203	31	20	
0	0	0	0	0	547	608	532	207	31	20	
1	0	0	0	0	546	607	532	203	31	20	
2	0	0	0	0	547	605	532	206	31	20	
3	0	0	0	0	546	607	534	203	31	20	
4	0	0	0	0	546	607	534	206	31	20	
5	0	0	0	0	545	607	533	203	31	20	
6	0	0	0	0	545	608	532	205	31	20	
7	0	0	0	0	545	609	533	204	31	20	
8	0	0	0	0	546	607	534	206	31	20	
9	0	0	0	0	545	607	532	202	31	20	
10	0	0	0	0	545	608	532	205	31	20	
11	0	0	0	0	546	608	534	201	31	20	
12	0	0	0	0	546	608	533	205	31	20	
13	0	0	0	0	545	607	531	201	31	20	
14	0	0	0	0	545	607	532	205	31	20	
15	0	0	0	0	545	607	533	203	31	20	
0	0	0	0	0	546	608	533	202	31	20	
1	0	0	0	0	546	608	534	202	31	20	
2	0	0	0	0	546	607	533	205	31	20	
3	0	0	0	0	545	608	534	204	31	20	
4	0	0	0	0	544	607	532	204	31	20	
5	0	0	0	0	545	608	534	202	31	20	
6	0	0	0	0	545	608	534	202	31	20	
7	0	0	0	0	546	607	533	201	31	20	
8	0	0	0	0	544	608	533	206	31	20	
9	0	0	0	0	545	607	533	202	31	20	
10	0	0	0	0	544	606	532	206	30	20	
11	0	0	0	0	544	607	533	202	31	20	
12	0	0	0	0	543	606	532	207	30	19	
13	0	0	0	0	544	608	531	202	31	19	
14	0	0	0	0	544	607	533	205	31	19	
15	0	0	0	0	543	608	532	201	31	20	
0	0	0	0	0	544	608	532	206	31	20	
1	0	0	0	0	543	608	534	206	31	20	
2	0	0	0	0	545	608	532	205	32	20	
3	0	0	0	0	545	607	533	202	31	20	
4	0	0	0	0	544	608	533	205	31	20	
5	0	0	0	0	544	608	534	202	28	20	
6	0	0	0	0	544	608	532	207	28	20	
7	0	0	0	0	543	607	533	202	30	20	
8	0	0	0	0	545	608	532	205	32	20	
9	0	0	0	0	543	610	533	203	32	20	
10	0	0	0	0	544	608	533	206	32	20	
11	0	0	0	0	544	607	534	202	32	20	
12	0	0	0	0	544	607	532	201	32	20	
13	0	0	0	0	545	608	534	204	32	20	
14	0	0	0	0	545	608	533	204	32	20	
15	0	0	0	0	543	610	534	202	32	20	
0	0	0	0	0	544	610	532	206	32	20	
1	0	0	0	0	543	608	532	202	32	20	
2	0	0	0	0	543	607	533	206	32	20	
3	0	0	0	0	543	609	534	201	31	20	
4	0	0	0	0	544	608	532	207	31	20	
5	0	0	0	0	544	608	533	202	31	20	
6	0	0	0	0	544	609	532	206	31	20	
7	0	0	0	0	543	608	534	201	31	19	
8	0	0	0	0	544	610	533	205	31	19	
9	0	0	0	0	543	609	532	204	30	19	
10	0	0	0	0	543	608	533	205	30	19	
11	0	0	0	0	543	608	533	201	30	19	
12	0	0	0	0	543	608	532	206	30	19	
13	0	0	0	0	543	608	534	201	30	19	
14	0	0	0	0	544	607	532	206	30	19	
15	0	0	0	0	543	607	532	201	30	19	
0	0	0	0	0	544	608	530	209	30	19	
1	0	0	0	0	543	608	532	202	30	19	
2	0	0	0	0	543	608	533	207	31	19	
3	0	0	0	0	543	609	533	200	31	19	
4	0	0	0	0	543	609	532	206	31	19	
5	0	0	0	0	543	608	531	205	32	18	
6	0	0	0	0	543	608	534	206	32	18	
7	0	0	0	0	543	609	534	204	32	18	
8	0	0	0	0	545	609	532	206	31	18	
9	0	0	0	0	543	608	533	205	31	18	
10	0	0	0	0	543	609	534	207	31	18	
11	0	0	0	0	542	609	534	203	31	18	
12	0	0	0	0	543	608	533	207	31	18	
13	0	0	0	0	543	608	532	203	31	17	
14	0	0	0	0	545	607	534	207	31	17	
15	0	0	0	0	544	608	534	203	31	17	
0	0	0	0	0	545	608	532	207	31	17	
1	0	0	0	0	545	610	532	204	31	17	
2	0	0	0	0	543	610	532	207	31	17	
3	0	0	0	0	542	609	533	202	31	16	
4	0	0	0	0	543	609	531	207	31	16	
5	0	0	0	0	545	608	533	203	31	16	
6	0	0	0	0	543	609	532	207	31	16	
7	0	0	0	0	544	609	533	201	31	16	
8	0	0	0	0	543	609	533	208	31	16	
9	0	0	0	0	542	609	531	203	31	16	
10	0	0	0	0	543	609	531	207	31	16	
11	0	0	0	0	542	609	532	205	31	16	
12	0	0	0	0	542	611	533	203	31	16	
13	0	0	0	0	541	611	533	203	31	16	
14	0	0	0	0	542	612	532	207	31	16	
15	0	0	0	0	542	611	533	204	31	16	
0	0	0	0	0	544	612	532	208	31	16	
1	0	0	0	0	543	611	532	203	31	16	
2	0	0	0	0	543	611	534	207	31	16	
3	0	0	0	0	542	611	533	203	31	16	
4	0	0	0	0	543	610	532	208	31	16	
5	0	0	0	0	543	611	530	202	31	16	
6	0	0	0	0	542	610	530	208	30	16	
7	0	0	0	0	540	608	531	204	31	16	
8	0	0	0	0	541	609	531	205	30	16	
9	0	0	0	0	541	609	530	200	30	16	
10	0	0	0	0	541	610	530	208	30	16	
11	0	0	0	0	539	611	531	203	30	16	
12	0	0	0	0	541	609	531	211	30	16	
13	0	0	0	0	539	610	531	206	30	16	
14	0	0	0	0	540	611	528	203	30	16	
15	0	0	0	0	537	611	531	205	30	16	
0	0	0	0	0	538	611	531	208	31	16	
1	0	0	0	0	537	612	529	204	31	16	
2	0	0	0	0	538	612	532	208	31	16	
3	0	0	0	0	539	612	530	205	31	17	
4	0	0	0	0	540	613	530	204	31	17	
5	0	0	0	0	540	614	530	210	31	17	
6	0	0	0	0	540	615	531	210	31	17	
7	0	0	0	0	539	615	528	205	29	17	
8	0	0	0	0	536	614	530	209	26	17	
9	0	0	0	0	536	616	528	207	28	17	
10	0	0	0	0	537	615	531	207	31	17	
11	0	0	0	0	536	615	528	205	32	17	
12	0	0	0	0	537	612	530	209	31	17	
13	0	0	0	0	537	612	527	205	31	18	
14	0	0	0	0	536	611	528	208	31	18	
15	0	0	0	0	537	611	526	209	31	18	
0	0	0	0	0	539	611	525	208	31	18	
1	0	0	0	0	540	609	524	205	31	18	
2	0	0	0	0	540	608	524	214	31	18	
3	0	0	0	0	539	609	526	206	31	18	
4	0	0	0	0	539	612	522	211	31	18	
5	0	0	0	0	540	611	524	206	31	18	
6	0	0	0	0	542	611	523	211	31	18	
7	0	0	0	0	543	609	522	202	31	18	
8	0	0	0	0	545	608	521	205	31	18	
9	0	0	0	0	547	608	520	205	31	18	
10	0	0	0	0	547	609	520	206	31	18	
11	0	0	0	0	547	607	520	205	31	18	
12	0	0	0	0	548	609	519	209	31	18	
13	0	0	0	0	547	609	518	210	30	18	
14	0	0	0	0	545	608	517	209	30	18	
15	0	0	0	0	547	606	518	207	30	18	
0	0	0	0	0	548	607	517	209	30	19	
1	0	0	0	0	548	609	515	207	31	19	
2	0	0	0	0	548	608	515	209	31	19	
3	0	0	0	0	548	608	516	206	31	19	
4	0	0	0	0	549	606	516	210	31	19	
5	0	0	0	0	551	606	515	206	32	19	
6	0	0	0	0	549	605	515	210	32	19	
7	0	0	0	0	549	607	513	207	32	19	
8	0	0	0	0	550	609	514	211	32	19	
9	0	0	0	0	549	606	514	207	32	19	
10	0	0	0	0	550	608	512	213	33	20	
11	0	0	0	0	546	606	512	206	33	20	
12	0	0	0	0	549	608	512	210	33	20	
13	0	0	0	0	551	614	513	206	33	20	
14	0	0	0	0	548	609	513	209	32	20	
15	0	0	0	0	549	608	513	206	32	20	
0	0	0	0	0	550	609	510	211	32	21	
1	0	0	0	0	551	609	512	207	32	21	
2	0	0	0	0	553	607	509	210	32	21	
3	0	0	0	0	552	605	511	206	32	21	
4	0	0	0	0	554	603	510	209	31	21	
5	0	0	0	0	555	603	508	207	31	21	
6	0	0	0	0	553	603	508	209	31	21	
7	0	0	0	0	553	600	508	206	31	21	
8	0	0	0	0	556	602	506	211	31	21	
9	0	0	0	0	555	603	506	208	30	22	
10	0	0	0	0	553	601	506	209	30	22	
11	0	0	0	0	554	604	507	207	30	22	
12	0	0	0	0	553	606	505	210	30	22	
13	0	0	0	0	553	603	507	207	30	22	
14	0	0	0	0	553	604	505	212	30	22	
15	0	0	0	0	555	608	505	208	30	23	
0	0	0	0	0	551	606	506	209	29	23	
1	0	0	0	0	552	602	507	207	29	23	
2	0	0	0	0	555	605	504	212	29	23	
3	0	0	0	0	555	605	504	207	30	23	
4	0	0	0	0	553	603	505	211	30	23	
5	0	0	0	0	557	602	504	208	30	24	
6	0	0	0	0	556	604	503	211	30	24	
7	0	0	0	0	556	603	504	208	30	24	
8	0	0	0	0	556	603	503	212	30	24	
9	0	0	0	0	557	603	502	207	30	24	
10	0	0	0	0	556	604	503	211	30	25	
11	0	0	0	0	557	601	503	211	30	25	
12	0	0	0	0	557	603	502	211	30	25	
13	0	0	0	0	555	601	500	208	30	25	
14	0	0	0	0	556	601	504	212	30	26	
15	0	0	0	0	555	604	501	209	30	26	
0	0	0	0	0	553	601	504	212	31	26	
1	0	0	0	0	554	600	502	209	31	26	
2	0	0	0	0	556	604	500	211	31	27	
3	0	0	0	0	555	604	502	211	30	27	
4	0	0	0	0	556	604	501	209	31	27	
5	0	0	0	0	555	605	502	209	31	27	
6	0	0	0	0	556	604	502	212	31	28	
7	0	0	0	0	556	604	500	210	32	28	
8	0	0	0	0	557	603	502	212	31	28	
9	0	0	0	0	557	602	502	209	31	28	
10	0	0	0	0	557	604	500	211	32	28	
11	0	0	0	0	557	601	500	211	31	29	
12	0	0	0	0	555	601	499	208	32	29	
13	0	0	0	0	556	602	500	211	31	29	
14	0	0	0	0	556	601	498	213	29	29	
15	0	0	0	0	556	602	500	209	26	29	
0	0	0	0	0	556	603	499	213	28	29	
1	0	0	0	0	556	602	500	210	32	30	
2	0	0	0	0	555	604	500	213	32	30	
3	0	0	0	0	556	605	501	210	32	30	
4	0	0	0	0	554	603	501	214	32	30	
5	0	0	0	0	555	604	500	210	32	30	
6	0	0	0	0	554	604	501	214	32	30	
7	0	0	0	0	554	602	502	209	32	30	
8	0	0	0	0	555	604	503	214	32	31	
9	0	0	0	0	555	603	501	210	32	31	
10	0	0	0	0	554	604	500	212	32	31	
11	0	0	0	0	555	605	503	209	32	31	
12	0	0	0	0	556	603	500	217	31	31	
13	0	0	0	0	557	603	500	209	31	31	
14	0	0	0	0	556	603	498	213	31	31	
15	0	0	0	0	556	602	500	209	31	31	
0	0	0	0	0	556	602	500	211	31	31	
1	0	0	0	0	557	600	500	210	31	31	
2	0	0	0	0	555	599	499	215	31	31	
3	0	0	0	0	556	600	498	210	31	31	
4	0	0	0	0	556	599	499	215	31	31	
5	0	0	0	0	556	598	498	210	30	31	
6	0	0	0	0	556	596	499	214	31	31	
7	0	0	0	0	554	593	498	211	30	31	
8	0	0	0	0	556	595	499	214	30	31	
9	0	0	0	0	558	596	498	209	30	31	
10	0	0	0	0	557	598	499	211	30	31	
11	0	0	0	0	559	599	501	210	29	31	
12	0	0	0	0	559	599	497	214	29	31	
13	0	0	0	0	559	602	499	213	29	31	
14	0	0	0	0	559	600	503	211	29	31	
15	0	0	0	0	559	599	502	211	30	31	
0	0	0	0	0	560	599	502	214	30	31	
1	0	0	0	0	558	600	504	212	31	31	
2	0	0	0	0	560	601	504	215	31	31	
3	0	0	0	0	559	600	505	208	32	31	
4	0	0	0	0	560	601	504	211	32	31	
5	0	0	0	0	561	601	504	212	32	31	
6	0	0	0	0	564	601	507	214	32	31	
7	0	0	0	0	563	601	506	211	32	32	
8	0	0	0	0	564	600	507	215	33	32	
9	0	0	0	0	564	602	505	211	33	32	
10	0	0	0	0	566	603	508	212	33	32	
11	0	0	0	0	567	601	507	209	33	32	
12	0	0	0	0	564	600	508	215	33	32	
13	0	0	0	0	566	601	510	209	33	32	
14	0	0	0	0	568	601	508	216	33	32	
15	0	0	0	0	564	598	509	211	33	32	
0	0	0	0	0	566	600	509	215	33	32	
1	0	0	0	0	567	600	509	211	33	32	
2	0	0	0	0	565	598	508	213	33	32	
3	0	0	0	0	566	600	508	210	33	32	
4	0	0	0	0	567	598	511	214	33	32	
5	0	0	0	0	566	598	509	209	32	32	
6	0	0	0	0	568	600	508	213	32	32	
7	0	0	0	0	567	597	508	211	32	32	
8	0	0	0	0	568	596	508	211	32	32	
9	0	0	0	0	568	599	508	220	32	32	
10	0	0	0	0	568	599	508	212	32	32	
11	0	0	0	0	567	598	509	208	32	32	
12	0	0	0	0	570	598	504	215	32	31	
13	0	0	0	0	568	596	509	212	32	31	
14	0	0	0	0	569	596	508	216	32	31	
15	0	0	0	0	568	597	508	211	31	31	
0	0	0	0	0	569	596	510	215	31	31	
1	0	0	0	0	569	596	508	211	31	31	
2	0	0	0	0	570	595	509	215	31	31	
3	0	0	0	0	569	598	509	214	31	31	
4	0	0	0	0	569	597	509	215	31	31	
5	0	0	0	0	568	596	509	212	31	31	
6	0	0	0	0	568	597	509	214	31	31	
7	0	0	0	0	568	598	511	210	31	30	
8	0	0	0	0	569	596	510	215	30	30	
9	0	0	0	0	568	597	510	213	30	30	
10	0	0	0	0	569	597	510	214	30	30	
11	0	0	0	0	568	597	510	215	30	30	
12	0	0	0	0	568	597	512	216	30	30	
13	0	0	0	0	568	597	510	211	30	30	
14	0	0	0	0	569	595	511	216	31	30	
15	0	0	0	0	568	598	510	211	31	30	
0	0	0	0	0	567	596	510	213	31	30	
1	0	0	0	0	567	598	509	212	31	30	
2	0	0	0	0	567	597	509	215	31	30	
3	0	0	0	0	567	598	509	214	31	30	
4	0	0	0	0	567	597	512	214	30	30	
5	0	0	0	0	565	596	510	212	30	30	
6	0	0	0	0	565	598	510	212	27	30	
7	0	0	0	0	565	596	510	211	27	30	
8	0	0	0	0	567	597	510	215	29	30	
9	0	0	0	0	565	598	510	210	31	30	
10	0	0	0	0	567	598	512	216	31	30	
11	0	0	0	0	566	598	511	213	31	30	
12	0	0	0	0	567	597	513	212	31	30	
13	0	0	0	0	567	598	511	211	31	30	
14	0	0	0	0	566	597	511	216	31	30	
15	0	0	0	0	564	597	511	212	31	30	
0	0	0	0	0	568	599	510	212	31	30	
1	0	0	0	0	566	600	509	212	31	30	
2	0	0	0	0	564	599	512	216	31	30	
3	0	0	0	0	566	597	513	213	31	30	
4	0	0	0	0	567	597	512	216	31	30	
5	0	0	0	0	566	598	510	213	31	29	
6	0	0	0	0	567	597	511	217	31	29	
7	0	0	0	0	566	598	511	211	30	29	
8	0	0	0	0	568	597	511	213	30	29	
9	0	0	0	0	567	598	512	212	30	29	
10	0	0	0	0	567	598	511	217	30	28	
11	0	0	0	0	565	597	509	212	30	28	
12	0	0	0	0	566	600	512	216	30	28	
13	0	0	0	0	565	598	512	212	29	28	
14	0	0	0	0	565	599	512	216	30	28	
15	0	0	0	0	566	598	512	220	30	28	
0	0	0	0	0	567	596	512	217	30	29	
1	0	0	0	0	566	598	511	212	30	29	
2	0	0	0	0	566	597	511	216	30	29	
3	0	0	0	0	566	599	512	213	31	29	
4	0	0	0	0	565	597	511	216	31	29	
5	0	0	0	0	566	598	512	213	31	29	
6	0	0	0	0	565	599	511	217	31	29	
7	0	0	0	0	568	598	512	210	31	29	
8	0	0	0	0	567	597	511	216	31	29	
9	0	0	0	0	566	595	512	214	31	29	
10	0	0	0	0	566	598	513	218	31	29	
11	0	0	0	0	565	598	512	215	31	29	
12	0	0	0	0	566	598	512	216	31	29	
13	0	0	0	0	564	597	512	213	31	29	
14	0	0	0	0	565	599	512	211	31	29	
15	0	0	0	0	564	599	512	208	31	29	
0	0	0	0	0	563	600	513	221	31	29	
1	0	0	0	0	563	601	513	216	31	29	
2	0	0	0	0	563	601	512	215	31	29	
3	0	0	0	0	562	602	513	213	30	29	
4	0	0	0	0	563	602	512	216	30	29	
5	0	0	0	0	562	601	513	214	31	29	
6	0	0	0	0	563	599	514	215	31	29	
7	0	0	0	0	563	600	513	213	30	30	
8	0	0	0	0	563	597	515	216	30	30	
9	0	0	0	0	563	598	515	213	31	30	
10	0	0	0	0	565	599	515	216	31	30	
11	0	0	0	0	564	597	514	219	30	30	
12	0	0	0	0	564	597	515	220	30	30	
13	0	0	0	0	564	598	515	212	30	30	
14	0	0	0	0	563	598	515	215	31	30	
15	0	0	0	0	560	599	517	215	30	30	
0	0	0	0	0	560	600	516	216	30	30	
1	0	0	0	0	559	599	517	213	30	30	
2	0	0	0	0	558	601	516	215	30	30	
3	0	0	0	0	556	602	518	210	30	30	
4	0	0	0	0	559	604	515	216	30	30	
5	0	0	0	0	555	602	521	217	30	30	
6	0	0	0	0	559	604	517	214	30	30	
7	0	0	0	0	552	598	522	213	30	30	
8	0	0	0	0	558	608	518	216	30	30	
9	0	0	0	0	555	604	520	214	30	30	
10	0	0	0	0	554	602	521	215	30	30	
11	0	0	0	0	554	604	522	212	30	30	
12	0	0	0	0	551	604	523	215	30	30	
13	0	0	0	0	551	606	519	216	30	30	
14	0	0	0	0	550	607	523	217	30	30	
15	0	0	0	0	549	605	524	212	30	30	
0	0	0	0	0	549	607	524	214	30	30	
1	0	0	0	0	550	607	524	213	30	31	
2	0	0	0	0	551	608	524	217	30	31	
3	0	0	0	0	549	605	525	212	30	31	
4	0	0	0	0	550	607	524	215	30	31	
5	0	0	0	0	550	607	525	213	31	31	
6	0	0	0	0	550	602	529	218	31	31	
7	0	0	0	0	549	611	526	216	31	31	
8	0	0	0	0	546	604	529	215	31	31	
9	0	0	0	0	547	608	525	213	31	31	
10	0	0	0	0	547	610	526	216	29	31	
11	0	0	0	0	547	610	529	213	27	31	
12	0	0	0	0	546	608	527	216	28	31	
13	0	0	0	0	546	610	528	213	31	31	
14	0	0	0	0	547	609	528	214	31	31	
15	0	0	0	0	545	608	527	213	31	32	
0	0	0	0	0	547	608	528	216	31	32	
1	0	0	0	0	546	608	530	215	31	32	
2	0	0	0	0	547	607	529	211	31	32	
3	0	0	0	0	547	609	531	209	31	32	
4	0	0	0	0	547	608	529	215	31	32	
5	0	0	0	0	546	609	531	214	31	32	
6	0	0	0	0	546	606	531	214	31	32	
7	0	0	0	0	547	609	530	208	31	32	
8	0	0	0	0	547	606	531	216	31	32	
9	0	0	0	0	548	608	530	212	30	32	
10	0	0	0	0	547	608	529	222	31	32	
11	0	0	0	0	547	606	529	211	30	32	
12	0	0	0	0	547	607	529	215	30	32	
13	0	0	0	0	547	609	528	213	30	32	
14	0	0	0	0	547	610	531	216	30	32	
15	0	0	0	0	547	610	531	212	30	32	
0	0	0	0	0	547	609	531	217	30	32	
1	0	0	0	0	548	608	532	213	30	32	
2	0	0	0	0	548	608	531	216	30	32	
3	0	0	0	0	547	607	529	214	30	32	
4	0	0	0	0	549	606	530	217	30	32	
5	0	0	0	0	547	607	531	213	30	32	
6	0	0	0	0	548	607	530	217	30	32	
7	0	0	0	0	547	607	531	209	30	32	
8	0	0	0	0	548	607	531	216	31	32	
9	0	0	0	0	547	607	531	216	31	32	
10	0	0	0	0	547	607	532	215	31	32	
11	0	0	0	0	547	609	533	212	31	32	
12	0	0	0	0	547	608	531	217	31	32	
13	0	0	0	0	547	608	531	213	31	32	
14	0	0	0	0	546	608	532	217	31	32	
15	0	0	0	0	546	607	531	211	31	32	
0	0	0	0	0	548	609	532	216	31	32	
1	0	0	0	0	547	608	530	216	31	32	
2	0	0	0	0	549	607	529	217	31	32	
3	0	0	0	0	547	607	530	211	31	31	
4	0	0	0	0	549	606	530	216	31	31	
5	0	0	0	0	550	608	531	214	31	31	
6	0	0	0	0	549	607	531	216	31	31	
7	0	0	0	0	547	604	530	214	31	31	
8	0	0	0	0	549	607	530	216	31	31	
9	0	0	0	0	547	607	531	214	31	31	
10	0	0	0	0	547	606	530	217	31	30	
11	0	0	0	0	547	606	531	214	31	30	
12	0	0	0	0	548	606	530	217	31	30	
13	0	0	0	0	548	608	532	214	31	30	
14	0	0	0	0	548	608	531	216	31	30	
15	0	0	0	0	549	606	531	214	31	30	
0	0	0	0	0	549	606	531	217	31	30	
1	0	0	0	0	550	607	531	206	31	30	
2	0	0	0	0	549	607	530	217	31	29	
3	0	0	0	0	550	606	532	214	31	29	
4	0	0	0	0	549	606	529	219	31	29	
5	0	0	0	0	550	605	531	211	32	29	
6	0	0	0	0	550	606	530	216	31	29	
7	0	0	0	0	547	605	532	213	31	29	
8	0	0	0	0	548	603	532	216	30	29	
9	0	0	0	0	547	603	534	213	30	29	
10	0	0	0	0	549	601	535	216	31	30	
11	0	0	0	0	550	601	539	214	30	30	
12	0	0	0	0	554	605	539	220	32	31	
13	0	0	0	0	558	613	536	213	32	32	
14	0	0	0	0	563	622	535	215	36	33	
15	0	0	0	0	565	633	531	212	34	34	
0	0	0	0	0	572	636	535	216	32	35	
1	0	0	0	0	579	647	536	212	31	36	
2	0	0	0	0	569	630	543	216	28	37	
3	0	0	0	0	569	604	550	210	27	39	
4	0	0	0	0	568	591	553	213	26	40	
5	0	0	0	0	565	578	556	211	24	41	
6	0	0	0	0	561	566	556	214	24	43	
7	0	0	0	0	559	558	557	212	25	44	
8	0	0	0	0	553	557	547	214	26	45	
9	0	0	0	0	553	567	534	215	28	46	
10	0	0	0	0	562	572	531	214	31	47	
11	0	0	0	0	547	568	522	209	39	48	
12	0	0	0	0	542	558	516	216	43	49	
13	0	0	0	0	543	549	515	215	51	50	
14	0	0	0	0	534	541	507	219	58	51	
15	0	0	0	0	536	536	502	215	63	51	
0	0	0	0	0	528	533	496	219	63	50	
1	0	0	0	0	523	530	497	216	63	49	
2	0	0	0	0	524	536	496	217	62	49	
3	0	0	0	0	539	552	500	213	61	48	
4	0	0	0	0	551	583	503	214	60	47	
5	0	0	0	0	570	625	497	211	55	45	
6	0	0	0	0	597	659	495	213	48	42	
7	0	0	0	0	595	641	502	206	46	40	
8	0	0	0	0	605	623	523	213	42	37	
9	0	0	0	0	634	644	550	211	38	35	
10	0	0	0	0	639	669	533	213	39	33	
11	0	0	0	0	636	643	521	207	46	32	
12	0	0	0	0	606	635	508	211	56	32	
13	0	0	0	0	628	687	521	208	52	33	
14	0	0	0	0	628	684	537	212	49	31	
15	0	0	0	0	638	696	534	211	46	29	
0	0	0	0	0	611	682	531	215	44	27	
1	0	0	0	0	576	654	527	211	46	25	
2	0	0	0	0	555	625	523	216	46	23	
3	0	0	0	0	547	602	512	211	38	22	
4	0	0	0	0	546	576	505	214	44	22	
5	0	0	0	0	536	549	505	215	48	22	
6	0	0	0	0	519	523	516	212	38	23	
7	0	0	0	0	496	517	530	212	40	25	
8	0	0	0	0	485	526	541	211	35	28	
9	0	0	0	0	504	535	543	207	31	30	
10	0	0	0	0	531	536	540	208	31	32	
11	0	0	0	0	547	535	539	205	34	35	
12	0	0	0	0	557	537	534	209	34	37	
13	0	0	0	0	559	541	535	209	27	38	
14	0	0	0	0	560	572	537	211	25	40	
15	0	0	0	0	566	616	533	210	27	41	
0	0	0	0	0	566	659	521	216	9	43	
1	0	0	0	0	548	681	520	212	0	43	
2	0	0	0	0	524	673	521	217	0	44	
3	0	0	0	0	530	667	515	216	0	44	
4	0	0	0	0	543	659	510	213	0	45	
5	0	0	0	0	531	659	494	211	0	45	
6	0	0	0	0	547	654	497	213	4	45	
7	0	0	0	0	539	652	493	209	7	44	
8	0	0	0	0	545	665	484	216	13	43	
9	0	0	0	0	540	655	481	215	11	41	
10	0	0	0	0	534	656	491	218	15	39	
11	0	0	0	0	538	664	490	217	16	37	
12	0	0	0	0	539	664	494	219	14	35	
13	0	0	0	0	530	657	500	218	12	34	
14	0	0	0	0	521	661	510	220	14	32	
15	0	0	0	0	520	667	512	217	15	31	
0	0	0	0	0	521	661	513	219	14	30	
1	0	0	0	0	527	651	510	215	13	28	
2	0	0	0	0	527	638	509	218	14	27	
3	0	0	0	0	524	623	512	214	17	26	
4	0	0	0	0	521	608	506	218	15	24	
5	0	0	0	0	510	590	510	213	18	22	
6	0	0	0	0	497	571	513	215	22	21	
7	0	0	0	0	492	552	519	214	22	20	
8	0	0	0	0	491	540	521	215	24	18	
9	0	0	0	0	495	531	523	211	28	17	
10	0	0	0	0	503	534	523	212	33	16	
11	0	0	0	0	510	538	518	212	36	15	
12	0	0	0	0	517	543	513	213	39	14	
13	0	0	0	0	524	541	510	210	42	13	
14	0	0	0	0	524	537	509	212	46	12	
15	0	0	0	0	523	536	511	211	49	12	
0	0	0	0	0	527	542	514	210	47	11	
1	0	0	0	0	535	554	522	201	40	10	
2	0	0	0	0	544	577	526	205	31	10	
3	0	0	0	0	568	603	525	204	24	10	
4	0	0	0	0	611	623	511	210	16	11	
5	0	0	0	0	650	657	504	208	0	12	
6	0	0	0	0	679	689	498	214	0	13	
7	0	0	0	0	677	676	491	213	21	15	
8	0	0	0	0	665	653	500	215	33	18	
9	0	0	0	0	680	654	507	211	35	19	
10	0	0	0	0	685	695	486	212	40	18	
11	0	0	0	0	696	691	482	212	40	16	
12	0	0	0	0	666	653	486	215	38	15	
13	0	0	0	0	632	620	495	214	41	14	
14	0	0	0	0	601	591	499	211	57	13	
15	0	0	0	0	586	571	492	215	55	12	
0	0	0	0	0	580	551	496	219	57	11	
1	0	0	0	0	564	537	498	216	58	11	
2	0	0	0	0	546	519	500	217	43	12	
3	0	0	0	0	531	513	510	217	42	13	
4	0	0	0	0	531	513	517	218	46	16	
5	0	0	0	0	531	522	515	218	43	19	
6	0	0	0	0	528	520	512	217	33	22	
7	0	0	0	0	523	515	512	217	30	25	
8	0	0	0	0	517	513	519	218	35	27	
9	0	0	0	0	515	515	515	216	44	29	
10	0	0	0	0	508	518	515	218	50	32	
11	0	0	0	0	506	528	519	215	50	34	
12	0	0	0	0	508	543	517	217	56	36	
13	0	0	0	0	514	560	516	212	49	37	
14	0	0	0	0	524	583	518	211	56	39	
15	0	0	0	0	537	612	520	208	50	40	
0	0	0	0	0	557	641	509	210	44	42	
1	0	0	0	0	565	665	501	207	36	42	
2	0	0	0	0	551	668	495	210	36	41	
3	0	0	0	0	528	652	503	207	32	40	
4	0	0	0	0	502	657	495	211	19	38	
5	0	0	0	0	496	649	503	211	29	36	
6	0	0	0	0	505	689	479	216	30	35	
7	0	0	0	0	527	704	474	216	25	38	
8	0	0	0	0	544	710	475	224	30	39	
9	0	0	0	0	552	718	475	218	33	40	
10	0	0	0	0	559	748	474	215	31	38	
11	0	0	0	0	552	763	477	210	26	36	
12	0	0	0	0	538	754	482	212	26	35	
13	0	0	0	0	527	740	484	208	27	34	
14	0	0	0	0	516	715	485	211	28	34	
15	0	0	0	0	506	692	499	209	21	33	
0	0	0	0	0	505	669	502	211	20	33	
1	0	0	0	0	495	647	504	213	22	32	
2	0	0	0	0	489	615	509	212	20	31	
3	0	0	0	0	497	599	517	206	14	29	
4	0	0	0	0	497	576	519	215	10	28	
5	0	0	0	0	509	563	521	207	6	26	
6	0	0	0	0	513	547	515	216	9	26	
7	0	0	0	0	513	536	515	211	11	25	
8	0	0	0	0	514	527	510	214	9	25	
9	0	0	0	0	510	520	510	206	19	26	
10	0	0	0	0	511	519	513	214	30	27	
11	0	0	0	0	516	523	506	211	34	28	
12	0	0	0	0	524	531	496	212	35	29	
13	0	0	0	0	527	527	491	211	32	31	
14	0	0	0	0	523	506	495	211	26	32	
15	0	0	0	0	518	486	502	209	22	33	
0	0	0	0	0	512	472	503	214	24	33	
1	0	0	0	0	512	468	510	215	31	34	
2	0	0	0	0	516	479	519	212	28	34	
3	0	0	0	0	528	507	519	208	25	34	
4	0	0	0	0	555	536	518	207	21	33	
5	0	0	0	0	592	560	510	206	15	33	
6	0	0	0	0	635	582	503	205	7	32	
7	0	0	0	0	662	591	511	197	0	31	
8	0	0	0	0	673	596	509	195	0	30	
9	0	0	0	0	668	595	515	197	0	29	
10	0	0	0	0	669	629	541	204	43	29	
11	0	0	0	0	710	702	535	205	51	28	
12	0	0	0	0	694	654	505	207	43	27	
13	0	0	0	0	677	610	531	209	39	26	
14	0	0	0	0	710	721	530	215	38	24	
15	0	0	0	0	689	720	523	213	39	22	
0	0	0	0	0	697	725	516	216	38	21	
1	0	0	0	0	669	716	515	211	38	20	
2	0	0	0	0	627	673	504	215	39	19	
3	0	0	0	0	634	661	514	212	42	19	
4	0	0	0	0	600	615	504	215	45	19	
5	0	0	0	0	585	576	519	208	46	19	
6	0	0	0	0	576	553	519	211	47	20	
7	0	0	0	0	568	532	524	211	51	21	
8	0	0	0	0	551	519	520	216	51	23	
9	0	0	0	0	550	531	515	222	50	24	
10	0	0	0	0	551	547	514	218	50	26	
11	0	0	0	0	544	549	513	216	44	28	
12	0	0	0	0	537	545	511	219	43	31	
13	0	0	0	0	535	541	509	216	41	33	
14	0	0	0	0	527	537	505	222	42	35	
15	0	0	0	0	519	535	505	213	39	37	
0	0	0	0	0	513	533	506	217	36	39	
1	0	0	0	0	515	532	508	216	29	40	
2	0	0	0	0	524	541	507	211	26	41	
3	0	0	0	0	535	547	504	209	25	42	
4	0	0	0	0	543	549	505	206	20	42	
5	0	0	0	0	550	559	507	202	15	40	
6	0	0	0	0	557	567	510	205	1	38	
7	0	0	0	0	574	578	516	201	0	36	
8	0	0	0	0	583	597	510	204	0	33	
9	0	0	0	0	595	635	500	202	0	31	
10	0	0	0	0	611	670	492	208	5	29	
11	0	0	0	0	617	678	496	208	13	27	
12	0	0	0	0	631	681	504	214	24	26	
13	0	0	0	0	647	694	494	214	30	26	
14	0	0	0	0	651	676	495	217	17	29	
15	0	0	0	0	641	667	499	218	29	31	
0	0	0	0	0	621	657	498	224	35	34	
1	0	0	0	0	615	659	504	217	36	34	
2	0	0	0	0	588	633	501	218	39	32	
3	0	0	0	0	575	623	505	214	44	30	
4	0	0	0	0	560	605	505	217	50	28	
5	0	0	0	0	553	589	503	210	57	26	
6	0	0	0	0	551	569	501	216	63	24	
7	0	0	0	0	545	550	497	211	63	24	
8	0	0	0	0	541	527	496	213	63	26	
9	0	0	0	0	533	508	496	209	63	29	
10	0	0	0	0	523	495	497	214	62	32	
11	0	0	0	0	517	495	497	210	63	34	
12	0	0	0	0	510	503	496	211	63	36	
13	0	0	0	0	506	515	502	216	63	37	
14	0	0	0	0	506	526	510	213	60	37	
15	0	0	0	0	504	537	513	210	54	38	
0	0	0	0	0	507	548	508	212	46	37	
1	0	0	0	0	509	555	510	205	38	36	
2	0	0	0	0	516	557	509	211	23	35	
3	0	0	0	0	512	554	514	204	10	32	
4	0	0	0	0	535	573	513	204	0	30	
5	0	0	0	0	544	575	508	200	0	28	
6	0	0	0	0	569	588	492	206	0	26	
7	0	0	0	0	593	597	499	206	0	24	
8	0	0	0	0	619	620	503	210	0	22	
9	0	0	0	0	646	670	505	207	0	21	
10	0	0	0	0	657	732	499	212	0	21	
11	0	0	0	0	653	696	497	216	13	23	
12	0	0	0	0	659	712	506	213	14	25	
13	0	0	0	0	631	711	513	211	30	28	
14	0	0	0	0	608	731	517	211	40	30	
15	0	0	0	0	600	734	510	206	40	28	
0	0	0	0	0	612	676	524	205	40	26	
1	0	0	0	0	597	639	503	203	30	24	
2	0	0	0	0	608	633	505	200	41	22	
3	0	0	0	0	603	611	497	193	47	21	
4	0	0	0	0	587	582	496	200	44	20	
5	0	0	0	0	579	563	514	198	38	18	
6	0	0	0	0	561	562	518	206	46	17	
7	0	0	0	0	548	563	530	207	63	16	
8	0	0	0	0	534	547	543	211	63	15	
9	0	0	0	0	515	527	542	211	63	14	
10	0	0	0	0	517	545	543	219	63	13	
11	0	0	0	0	498	515	538	221	63	12	
12	0	0	0	0	491	502	532	224	63	12	
13	0	0	0	0	496	509	524	221	63	13	
14	0	0	0	0	515	527	508	222	57	15	
15	0	0	0	0	529	543	496	217	46	19	
0	0	0	0	0	526	542	495	222	46	22	
1	0	0	0	0	510	530	493	214	43	25	
2	0	0	0	0	494	532	492	215	39	27	
3	0	0	0	0	495	556	486	211	26	29	
4	0	0	0	0	489	573	477	211	26	30	
5	0	0	0	0	469	571	481	206	22	31	
6	0	0	0	0	474	588	491	202	16	31	
7	0	0	0	0	478	606	495	194	7	30	
8	0	0	0	0	497	636	504	195	0	30	
9	0	0	0	0	508	679	506	195	0	28	
10	0	0	0	0	503	701	516	204	0	26	
11	0	0	0	0	498	703	527	208	0	24	
12	0	0	0	0	487	713	514	217	0	22	
13	0	0	0	0	471	691	517	218	0	21	
14	0	0	0	0	484	701	507	224	0	21	
15	0	0	0	0	519	736	498	222	13	22	
0	0	0	0	0	534	713	486	222	27	22	
1	0	0	0	0	515	677	490	219	22	21	
2	0	0	0	0	508	686	499	221	6	21	
3	0	0	0	0	482	671	495	217	0	21	
4	0	0	0	0	485	659	489	221	2	21	
5	0	0	0	0	501	654	478	215	5	22	
6	0	0	0	0	523	651	471	217	9	23	
7	0	0	0	0	548	649	463	212	19	24	
8	0	0	0	0	574	648	467	213	25	24	
9	0	0	0	0	591	655	470	208	21	24	
10	0	0	0	0	590	659	473	207	17	23	
11	0	0	0	0	582	642	491	205	19	22	
12	0	0	0	0	593	665	508	207	28	20	
13	0	0	0	0	595	651	509	205	26	19	
14	0	0	0	0	613	623	523	207	21	18	
15	0	0	0	0	628	614	520	206	14	17	
0	0	0	0	0	629	622	513	210	16	16	
1	0	0	0	0	624	619	512	206	19	15	
2	0	0	0	0	612	602	518	210	28	14	
3	0	0	0	0	595	584	519	214	43	13	
4	0	0	0	0	577	564	524	214	62	12	
5	0	0	0	0	560	558	527	212	63	12	
6	0	0	0	0	541	548	527	218	63	12	
7	0	0	0	0	525	541	526	218	63	12	
8	0	0	0	0	514	539	519	223	63	13	
9	0	0	0	0	506	520	521	223	63	15	
10	0	0	0	0	504	511	519	224	63	17	
11	0	0	0	0	501	509	512	221	63	20	
12	0	0	0	0	511	521	498	223	56	22	
13	0	0	0	0	523	529	489	218	54	24	
14	0	0	0	0	532	530	481	220	57	25	
15	0	0	0	0	537	524	480	215	55	27	
0	0	0	0	0	537	522	477	213	46	28	
1	0	0	0	0	525	509	481	207	33	29	
2	0	0	0	0	516	504	494	211	15	30	
3	0	0	0	0	505	511	507	195	17	31	
4	0	0	0	0	501	524	510	201	20	31	
5	0	0	0	0	507	545	514	197	20	30	
6	0	0	0	0	518	579	519	198	19	29	
7	0	0	0	0	540	625	519	197	12	27	
8	0	0	0	0	565	677	512	206	0	25	
9	0	0	0	0	592	723	503	211	0	23	
10	0	0	0	0	601	746	504	216	0	22	
11	0	0	0	0	571	718	515	217	0	21	
12	0	0	0	0	528	765	502	223	13	20	
13	0	0	0	0	536	810	511	217	44	21	
14	0	0	0	0	560	857	494	219	63	20	
15	0	0	0	0	559	806	487	216	63	19	
0	0	0	0	0	582	744	501	219	37	18	
1	0	0	0	0	563	721	491	213	47	16	
2	0	0	0	0	548	692	480	218	63	15	
3	0	0	0	0	539	652	487	214	63	15	
4	0	0	0	0	531	641	488	218	63	15	
5	0	0	0	0	524	603	508	219	63	15	
6	0	0	0	0	509	570	508	222	51	16	
7	0	0	0	0	508	561	509	220	39	17	
8	0	0	0	0	503	540	512	220	35	19	
9	0	0	0	0	499	529	515	228	42	20	
10	0	0	0	0	492	519	519	225	54	23	
11	0	0	0	0	476	499	526	221	63	25	
12	0	0	0	0	483	510	524	224	63	28	
13	0	0	0	0	488	519	522	220	63	30	
14	0	0	0	0	491	526	519	222	63	32	
15	0	0	0	0	508	527	507	220	63	35	
0	0	0	0	0	512	518	508	222	63	36	
1	0	0	0	0	516	511	505	221	47	38	
2	0	0	0	0	515	516	509	222	43	40	
3	0	0	0	0	514	529	505	222	38	41	
4	0	0	0	0	517	552	506	221	30	42	
5	0	0	0	0	521	571	512	217	24	43	
6	0	0	0	0	525	577	510	219	20	42	
7	0	0	0	0	543	588	512	215	10	41	
8	0	0	0	0	560	605	500	218	0	39	
9	0	0	0	0	567	595	507	216	0	36	
10	0	0	0	0	587	612	503	222	0	34	
11	0	0	0	0	588	629	510	219	0	31	
12	0	0	0	0	615	662	514	229	0	29	
13	0	0	0	0	632	688	535	225	0	27	
14	0	0	0	0	615	717	525	227	7	26	
15	0	0	0	0	648	783	517	225	18	25	
0	0	0	0	0	665	765	520	229	9	23	
1	0	0	0	0	661	735	515	231	9	21	
2	0	0	0	0	639	715	505	231	13	20	
3	0	0	0	0	627	690	511	229	27	19	
4	0	0	0	0	596	657	505	231	45	18	
5	0	0	0	0	583	634	505	230	46	17	
6	0	0	0	0	571	610	505	231	56	17	
7	0	0	0	0	559	589	506	229	50	18	
8	0	0	0	0	539	560	511	231	60	19	
9	0	0	0	0	532	561	508	228	63	22	
10	0	0	0	0	530	543	515	229	63	25	
11	0	0	0	0	511	535	513	226	63	27	
12	0	0	0	0	511	531	513	228	63	30	
13	0	0	0	0	512	545	517	231	50	32	
14	0	0	0	0	509	542	516	231	54	34	
15	0	0	0	0	506	547	512	228	60	35	
0	0	0	0	0	502	544	512	229	60	35	
1	0	0	0	0	491	537	519	224	48	36	
2	0	0	0	0	490	542	514	227	25	36	
3	0	0	0	0	497	544	505	226	8	37	
4	0	0	0	0	506	536	498	233	0	38	
5	0	0	0	0	506	520	492	227	0	39	
6	0	0	0	0	505	505	492	231	0	40	
7	0	0	0	0	511	514	493	229	0	42	
8	0	0	0	0	525	537	490	231	0	43	
9	0	0	0	0	546	572	491	227	0	44	
10	0	0	0	0	572	603	480	228	0	45	
11	0	0	0	0	584	621	470	227	0	45	
12	0	0	0	0	596	628	487	234	0	45	
13	0	0	0	0	610	646	508	233	2	44	
14	0	0	0	0	636	711	500	235	27	44	
15	0	0	0	0	665	722	480	233	38	45	
0	0	0	0	0	663	659	490	240	16	46	
1	0	0	0	0	659	650	489	234	17	47	
2	0	0	0	0	702	704	484	238	30	48	
3	0	0	0	0	679	685	496	232	36	45	
4	0	0	0	0	659	663	510	231	21	42	
5	0	0	0	0	653	644	511	230	25	39	
6	0	0	0	0	639	638	505	233	34	37	
7	0	0	0	0	625	625	508	233	56	34	
8	0	0	0	0	614	600	519	236	61	33	
9	0	0	0	0	591	576	526	233	63	33	
10	0	0	0	0	573	575	526	237	63	34	
11	0	0	0	0	543	556	533	234	63	36	
12	0	0	0	0	540	546	547	239	63	38	
13	0	0	0	0	525	522	543	237	63	40	
14	0	0	0	0	515	515	538	239	63	41	
15	0	0	0	0	502	498	537	236	63	43	
0	0	0	0	0	497	496	531	241	63	44	
1	0	0	0	0	481	502	539	238	51	45	
2	0	0	0	0	468	521	533	241	34	47	
3	0	0	0	0	463	569	515	238	34	47	
4	0	0	0	0	462	616	493	240	36	48	
5	0	0	0	0	462	651	483	239	37	48	
6	0	0	0	0	468	659	505	239	31	49	
7	0	0	0	0	460	629	499	234	14	50	
8	0	0	0	0	444	614	482	235	0	51	
9	0	0	0	0	430	606	486	223	0	51	
10	0	0	0	0	434	595	501	231	0	51	
11	0	0	0	0	453	611	499	231	0	51	
12	0	0	0	0	467	674	499	235	0	50	
13	0	0	0	0	474	739	467	231	0	50	
14	0	0	0	0	462	719	474	234	0	49	
15	0	0	0	0	453	676	482	230	0	48	
0	0	0	0	0	448	673	486	236	0	47	
1	0	0	0	0	444	684	487	233	0	46	
2	0	0	0	0	435	693	488	245	0	45	
3	0	0	0	0	431	699	484	238	0	44	
4	0	0	0	0	429	693	484	243	3	43	
5	0	0	0	0	427	680	487	243	14	42	
6	0	0	0	0	425	670	487	242	45	41	
7	0	0	0	0	441	660	488	238	63	40	
8	0	0	0	0	456	643	486	236	63	39	
9	0	0	0	0	466	636	483	231	63	38	
10	0	0	0	0	472	622	483	234	63	37	
11	0	0	0	0	478	614	488	231	63	36	
12	0	0	0	0	481	599	493	231	55	35	
13	0	0	0	0	480	583	495	232	47	34	
14	0	0	0	0	484	577	499	235	33	33	
15	0	0	0	0	489	572	498	234	31	32	
0	0	0	0	0	494	572	492	237	40	31	
1	0	0	0	0	496	574	494	237	46	29	
2	0	0	0	0	493	575	495	236	49	27	
3	0	0	0	0	492	574	496	238	48	26	
4	0	0	0	0	491	567	500	239	41	24	
5	0	0	0	0	485	557	504	231	32	22	
6	0	0	0	0	492	557	504	228	25	21	
7	0	0	0	0	493	549	503	226	17	20	
8	0	0	0	0	499	536	509	228	9	19	
9	0	0	0	0	508	538	516	229	6	18	
10	0	0	0	0	522	550	524	233	2	17	
11	0	0	0	0	543	574	525	233	0	17	
12	0	0	0	0	567	602	521	237	0	17	
13	0	0	0	0	588	615	511	235	0	17	
14	0	0	0	0	602	611	513	243	0	16	
15	0	0	0	0	617	618	527	244	0	16	
0	0	0	0	0	612	651	527	245	24	15	
1	0	0	0	0	609	704	515	250	34	14	
2	0	0	0	0	607	710	516	255	38	13	
3	0	0	0	0	612	700	523	252	38	13	
4	0	0	0	0	614	693	516	253	36	12	
5	0	0	0	0	613	686	510	246	35	11	
6	0	0	0	0	599	668	508	250	39	10	
7	0	0	0	0	595	644	505	245	47	9	
8	0	0	0	0	579	612	506	247	56	9	
9	0	0	0	0	561	585	503	243	63	9	
10	0	0	0	0	551	569	502	245	63	8	
11	0	0	0	0	543	551	504	242	63	9	
12	0	0	0	0	530	542	503	243	63	9	
13	0	0	0	0	520	533	505	241	63	10	
14	0	0	0	0	515	523	510	243	63	11	
15	0	0	0	0	514	525	512	239	63	13	
0	0	0	0	0	514	527	516	243	63	15	
1	0	0	0	0	522	539	516	236	63	17	
2	0	0	0	0	518	526	520	240	63	20	
3	0	0	0	0	524	529	516	239	61	23	
4	0	0	0	0	527	529	525	241	48	26	
5	0	0	0	0	526	535	536	238	24	28	
6	0	0	0	0	531	567	535	243	7	30	
7	0	0	0	0	553	623	528	242	0	32	
8	0	0	0	0	574	680	507	248	0	32	
9	0	0	0	0	579	697	489	248	0	30	
10	0	0	0	0	569	671	490	251	0	28	
11	0	0	0	0	546	657	505	249	0	26	
12	0	0	0	0	527	676	504	252	12	24	
13	0	0	0	0	560	715	492	248	23	23	
14	0	0	0	0	575	708	492	249	38	24	
15	0	0	0	0	563	703	503	243	40	25	
0	0	0	0	0	559	707	503	246	45	26	
1	0	0	0	0	545	706	496	244	48	27	
2	0	0	0	0	538	686	504	243	44	28	
3	0	0	0	0	523	662	502	243	40	29	
4	0	0	0	0	516	653	493	247	39	31	
5	0	0	0	0	519	629	501	240	55	32	
6	0	0	0	0	513	599	496	245	63	34	
7	0	0	0	0	508	579	495	244	63	35	
8	0	0	0	0	498	553	499	250	63	36	
9	0	0	0	0	485	535	508	249	63	37	
10	0	0	0	0	474	518	512	255	63	39	
11	0	0	0	0	469	502	526	254	63	40	
12	0	0	0	0	457	492	529	253	63	42	
13	0	0	0	0	458	483	525	251	63	43	
14	0	0	0	0	469	506	515	253	63	44	
15	0	0	0	0	483	519	509	249	63	45	
0	0	0	0	0	496	536	501	251	63	46	
1	0	0	0	0	513	554	490	249	63	47	
2	0	0	0	0	519	576	481	251	57	48	
3	0	0	0	0	511	586	475	245	33	49	
4	0	0	0	0	503	592	497	244	24	48	
5	0	0	0	0	500	611	521	238	13	47	
6	0	0	0	0	515	661	554	244	0	46	
7	0	0	0	0	539	771	502	247	0	45	
8	0	0	0	0	511	712	481	255	0	44	
9	0	0	0	0	534	643	505	254	0	44	
10	0	0	0	0	510	649	511	257	0	46	
11	0	0	0	0	533	773	482	252	0	46	
12	0	0	0	0	554	826	483	255	17	43	
13	0	0	0	0	521	713	498	250	17	40	
14	0	0	0	0	529	687	504	251	0	37	
15	0	0	0	0	523	658	504	246	0	35	
0	0	0	0	0	514	641	486	252	0	33	
1	0	0	0	0	526	620	483	241	0	31	
2	0	0	0	0	519	562	496	245	2	30	
3	0	0	0	0	530	542	511	242	50	28	
4	0	0	0	0	546	545	504	246	63	26	
5	0	0	0	0	552	529	506	243	63	24	
6	0	0	0	0	566	532	500	247	63	23	
7	0	0	0	0	566	518	503	245	63	21	
8	0	0	0	0	576	505	505	241	63	20	
9	0	0	0	0	580	492	508	236	62	19	
10	0	0	0	0	587	499	515	240	49	18	
11	0	0	0	0	593	509	521	239	39	17	
12	0	0	0	0	615	514	506	241	23	16	
13	0	0	0	0	627	521	506	245	0	16	
14	0	0	0	0	637	524	505	246	0	17	
15	0	0	0	0	645	535	496	237	0	17	
0	0	0	0	0	652	551	494	239	0	18	
1	0	0	0	0	647	605	524	240	0	18	
2	0	0	0	0	659	609	462	243	0	18	
3	0	0	0	0	624	553	522	240	0	18	
4	0	0	0	0	639	617	510	244	0	17	
5	0	0	0	0	665	639	477	243	0	16	
6	0	0	0	0	659	594	500	248	0	15	
7	0	0	0	0	679	618	497	243	0	14	
8	0	0	0	0	690	623	496	249	0	13	
9	0	0	0	0	692	616	499	249	0	12	
10	0	0	0	0	687	619	504	248	0	11	
11	0	0	0	0	681	605	512	245	6	11	
12	0	0	0	0	676	610	515	248	16	10	
13	0	0	0	0	671	619	517	248	29	9	
14	0	0	0	0	657	615	513	246	33	8	
15	0	0	0	0	652	615	519	243	31	8	
0	0	0	0	0	635	602	526	248	37	7	
1	0	0	0	0	620	595	530	242	53	7	
2	0	0	0	0	606	591	534	248	63	6	
3	0	0	0	0	593	590	531	248	63	6	
4	0	0	0	0	583	583	523	252	62	6	
5	0	0	0	0	572	579	521	250	61	5	
6	0	0	0	0	549	562	519	254	63	5	
7	0	0	0	0	537	569	504	248	63	5	
8	0	0	0	0	519	557	519	254	63	6	
9	0	0	0	0	512	548	516	252	63	9	
10	0	0	0	0	519	549	508	256	63	12	
11	0	0	0	0	525	556	503	253	63	16	
12	0	0	0	0	527	556	497	251	63	19	
13	0	0	0	0	516	551	496	256	63	22	
14	0	0	0	0	508	543	493	258	63	24	
15	0	0	0	0	499	541	494	251	58	26	
0	0	0	0	0	494	540	497	260	52	28	
1	0	0	0	0	492	537	501	254	47	30	
2	0	0	0	0	493	540	502	255	42	31	
3	0	0	0	0	497	542	508	252	33	31	
4	0	0	0	0	489	544	505	253	25	31	
5	0	0	0	0	488	551	513	253	11	31	
6	0	0	0	0	489	558	516	246	0	30	
7	0	0	0	0	497	593	516	240	0	28	
8	0	0	0	0	507	628	508	240	0	27	
9	0	0	0	0	515	667	510	236	0	25	
10	0	0	0	0	524	709	521	238	0	23	
11	0	0	0	0	531	751	503	236	0	22	
12	0	0	0	0	536	732	488	242	0	22	
13	0	0	0	0	532	700	516	240	0	23	
14	0	0	0	0	524	710	513	248	0	24	
15	0	0	0	0	503	699	508	243	16	24	
0	0	0	0	0	487	663	504	247	53	24	
1	0	0	0	0	485	664	500	245	63	23	
2	0	0	0	0	484	669	488	248	62	23	
3	0	0	0	0	482	645	482	247	63	22	
4	0	0	0	0	485	611	484	246	63	22	
5	0	0	0	0	492	583	483	247	63	23	
6	0	0	0	0	499	553	483	251	63	24	
7	0	0	0	0	511	525	490	249	63	25	
8	0	0	0	0	519	503	494	251	63	27	
9	0	0	0	0	533	500	492	248	61	28	
10	0	0	0	0	545	495	494	250	46	30	
11	0	0	0	0	554	492	502	248	28	31	
12	0	0	0	0	558	496	506	251	18	32	
13	0	0	0	0	560	512	515	248	22	33	
14	0	0	0	0	561	543	518	250	30	33	
15	0	0	0	0	570	567	516	243	24	33	
0	0	0	0	0	568	575	520	242	2	32	
1	0	0	0	0	568	589	527	235	0	31	
2	0	0	0	0	569	615	543	240	1	29	
3	0	0	0	0	574	656	541	241	21	27	
4	0	0	0	0	570	668	522	242	31	25	
5	0	0	0	0	568	622	532	243	37	23	
6	0	0	0	0	581	597	536	251	31	22	
7	0	0	0	0	610	634	526	251	51	20	
8	0	0	0	0	630	675	514	252	63	19	
9	0	0	0	0	647	692	518	249	63	18	
10	0	0	0	0	645	674	519	253	63	17	
11	0	0	0	0	636	663	512	248	63	16	
12	0	0	0	0	629	666	503	252	63	15	
13	0	0	0	0	623	653	499	248	56	14	
14	0	0	0	0	621	632	505	251	46	13	
15	0	0	0	0	613	619	500	248	38	12	
0	0	0	0	0	599	601	500	249	26	11	
1	0	0	0	0	585	585	502	248	30	10	
2	0	0	0	0	573	566	500	246	34	10	
3	0	0	0	0	562	558	501	249	34	10	
4	0	0	0	0	542	548	504	253	37	10	
5	0	0	0	0	527	538	511	251	36	11	
6	0	0	0	0	513	528	512	255	41	11	
7	0	0	0	0	499	531	515	254	46	12	
8	0	0	0	0	482	538	521	255	50	14	
9	0	0	0	0	464	537	523	253	54	16	
10	0	0	0	0	452	548	533	254	59	18	
11	0	0	0	0	445	549	534	255	60	20	
12	0	0	0	0	450	556	530	251	55	23	
13	0	0	0	0	460	562	533	249	45	25	
14	0	0	0	0	468	566	543	254	31	28	
15	0	0	0	0	477	593	550	254	16	30	
0	0	0	0	0	480	615	536	256	9	32	
1	0	0	0	0	476	627	527	257	0	34	
2	0	0	0	0	471	634	534	261	0	36	
3	0	0	0	0	463	662	544	257	0	38	
4	0	0	0	0	464	703	556	260	0	39	
5	0	0	0	0	471	730	559	259	20	41	
6	0	0	0	0	476	737	561	255	21	42	
7	0	0	0	0	466	732	558	251	3	44	
8	0	0	0	0	458	752	558	252	0	45	
9	0	0	0	0	464	767	562	251	5	44	
10	0	0	0	0	477	753	557	251	17	43	
11	0	0	0	0	484	728	550	248	2	40	
12	0	0	0	0	482	708	547	249	10	37	
13	0	0	0	0	478	690	545	246	23	34	
14	0	0	0	0	471	662	539	248	25	32	
15	0	0	0	0	464	636	540	247	28	30	
0	0	0	0	0	465	607	536	249	34	28	
1	0	0	0	0	471	590	532	247	30	27	
2	0	0	0	0	467	580	528	251	39	26	
3	0	0	0	0	470	563	527	247	48	25	
4	0	0	0	0	480	547	528	249	51	26	
5	0	0	0	0	486	534	524	252	56	27	
6	0	0	0	0	495	524	523	252	63	30	
7	0	0	0	0	509	514	521	249	63	32	
8	0	0	0	0	516	505	515	253	63	34	
9	0	0	0	0	519	499	515	247	63	36	
10	0	0	0	0	514	488	521	252	62	36	
11	0	0	0	0	511	482	528	250	50	37	
12	0	0	0	0	512	488	526	252	36	37	
13	0	0	0	0	522	502	520	244	16	37	
14	0	0	0	0	537	537	524	246	0	37	
15	0	0	0	0	533	541	517	242	0	36	
0	0	0	0	0	553	567	523	247	0	34	
1	0	0	0	0	565	577	527	243	0	32	
2	0	0	0	0	583	600	534	247	0	29	
3	0	0	0	0	591	637	529	250	0	27	
4	0	0	0	0	602	686	532	250	4	25	
5	0	0	0	0	616	731	540	249	32	24	
6	0	0	0	0	603	743	541	249	41	22	
7	0	0	0	0	592	747	546	248	31	22	
8	0	0	0	0	594	757	551	247	37	23	
9	0	0	0	0	580	759	563	245	41	24	
10	0	0	0	0	586	732	564	242	54	26	
11	0	0	0	0	646	736	558	238	40	27	
12	0	0	0	0	585	644	557	242	4	27	
13	0	0	0	0	617	624	556	236	14	26	
14	0	0	0	0	605	609	517	238	59	25	
15	0	0	0	0	599	572	518	236	63	23	
0	0	0	0	0	606	560	506	240	63	22	
1	0	0	0	0	613	567	499	239	63	20	
2	0	0	0	0	583	526	510	245	63	19	
3	0	0	0	0	575	507	504	246	63	18	
4	0	0	0	0	559	508	502	252	63	17	
5	0	0	0	0	538	508	500	247	63	16	
6	0	0	0	0	516	508	499	254	53	15	
7	0	0	0	0	506	512	501	254	26	14	
8	0	0	0	0	498	516	492	256	10	13	
9	0	0	0	0	499	517	489	255	0	13	
10	0	0	0	0	509	524	485	255	0	13	
11	0	0	0	0	514	524	479	252	0	13	
12	0	0	0	0	513	521	480	246	0	13	
13	0	0	0	0	507	526	478	244	0	14	
14	0	0	0	0	508	532	480	248	0	14	
15	0	0	0	0	515	562	489	243	0	16	
0	0	0	0	0	537	604	482	252	0	17	
1	0	0	0	0	565	641	463	253	0	19	
2	0	0	0	0	580	627	449	258	0	21	
3	0	0	0	0	591	603	457	258	0	23	
4	0	0	0	0	575	633	457	263	0	25	
5	0	0	0	0	577	677	451	255	0	27	
6	0	0	0	0	595	696	456	262	0	30	
7	0	0	0	0	604	711	435	256	12	32	
8	0	0	0	0	615	702	444	261	15	34	
9	0	0	0	0	598	694	445	254	26	36	
10	0	0	0	0	602	705	440	255	40	37	
11	0	0	0	0	572	671	443	250	51	37	
12	0	0	0	0	561	657	445	257	55	38	
13	0	0	0	0	550	640	455	251	63	38	
14	0	0	0	0	527	617	462	252	63	39	
15	0	0	0	0	524	611	466	246	63	39	
0	0	0	0	0	504	588	470	248	63	40	
1	0	0	0	0	499	569	475	245	63	40	
2	0	0	0	0	498	561	479	247	63	40	
3	0	0	0	0	492	545	486	246	63	40	
4	0	0	0	0	496	542	486	247	63	41	
5	0	0	0	0	496	536	486	245	63	41	
6	0	0	0	0	500	536	489	248	63	42	
7	0	0	0	0	511	539	487	241	52	43	
8	0	0	0	0	522	542	489	244	36	44	
9	0	0	0	0	527	544	493	239	23	44	
10	0	0	0	0	531	549	493	246	14	45	
11	0	0	0	0	533	562	495	250	3	46	
12	0	0	0	0	534	578	497	251	0	46	
13	0	0	0	0	533	591	495	249	0	47	
14	0	0	0	0	521	582	487	256	0	47	
15	0	0	0	0	508	556	499	255	0	47	
0	0	0	0	0	506	572	485	262	0	47	
1	0	0	0	0	519	591	483	259	0	48	
2	0	0	0	0	522	608	478	261	0	48	
3	0	0	0	0	534	624	470	258	0	47	
4	0	0	0	0	535	636	465	258	0	47	
5	0	0	0	0	551	638	463	255	0	46	
6	0	0	0	0	572	649	442	255	0	45	
7	0	0	0	0	592	627	448	251	0	44	
8	0	0	0	0	617	630	435	254	6	44	
9	0	0	0	0	640	634	437	252	17	43	
10	0	0	0	0	649	634	437	254	31	43	
11	0	0	0	0	650	634	440	252	50	43	
12	0	0	0	0	642	627	444	253	61	43	
13	0	0	0	0	637	620	451	251	63	43	
14	0	0	0	0	629	608	456	254	63	42	
15	0	0	0	0	616	593	466	256	63	42	
0	0	0	0	0	602	580	476	255	63	41	
1	0	0	0	0	584	571	484	251	63	40	
2	0	0	0	0	572	561	494	257	63	38	
3	0	0	0	0	561	555	504	255	63	37	
4	0	0	0	0	553	551	511	260	63	36	
5	0	0	0	0	544	551	512	254	63	35	
6	0	0	0	0	536	554	515	254	63	34	
7	0	0	0	0	528	561	515	252	63	33	
8	0	0	0	0	523	564	515	255	63	33	
9	0	0	0	0	520	557	510	254	59	32	
10	0	0	0	0	522	549	511	259	55	32	
11	0	0	0	0	523	541	511	252	54	32	
12	0	0	0	0	527	543	510	257	56	32	
13	0	0	0	0	529	547	511	252	55	32	
14	0	0	0	0	530	557	507	250	49	33	
15	0	0	0	0	529	566	506	246	37	34	
0	0	0	0	0	524	570	504	247	16	34	
1	0	0	0	0	520	573	499	246	2	35	
2	0	0	0	0	523	585	493	252	0	36	
3	0	0	0	0	534	600	481	249	0	37	
4	0	0	0	0	548	603	467	255	0	38	
5	0	0	0	0	558	598	450	254	0	39	
6	0	0	0	0	570	589	447	259	0	40	
7	0	0	0	0	574	595	435	255	0	41	
8	0	0	0	0	590	616	427	257	15	41	
9	0	0	0	0	594	625	417	255	16	41	
10	0	0	0	0	606	622	421	259	18	41	
11	0	0	0	0	615	626	420	255	18	39	
12	0	0	0	0	633	627	420	261	22	37	
13	0	0	0	0	651	627	417	255	27	35	
14	0	0	0	0	663	631	418	258	33	32	
15	0	0	0	0	664	628	423	256	41	30	
0	0	0	0	0	656	624	429	259	50	28	
1	0	0	0	0	651	619	439	256	56	26	
2	0	0	0	0	642	619	446	258	57	24	
3	0	0	0	0	631	615	450	254	55	23	
4	0	0	0	0	620	612	460	252	47	21	
5	0	0	0	0	606	607	466	253	41	20	
6	0	0	0	0	590	604	472	253	40	19	
7	0	0	0	0	574	594	477	251	41	18	
8	0	0	0	0	559	583	484	249	41	17	
9	0	0	0	0	544	576	492	244	40	17	
10	0	0	0	0	530	568	497	243	40	18	
11	0	0	0	0	518	559	502	242	49	20	
12	0	0	0	0	508	547	509	247	56	23	
13	0	0	0	0	496	543	506	246	60	25	
14	0	0	0	0	480	535	523	251	56	28	
15	0	0	0	0	472	532	527	248	52	30	
0	0	0	0	0	463	527	528	253	51	33	
1	0	0	0	0	459	532	531	248	43	35	
2	0	0	0	0	454	540	533	250	38	37	
3	0	0	0	0	454	549	534	247	34	38	
4	0	0	0	0	454	562	533	250	29	39	
5	0	0	0	0	455	569	535	252	25	40	
6	0	0	0	0	456	578	530	252	13	41	
7	0	0	0	0	454	581	524	251	3	41	
8	0	0	0	0	450	583	519	255	0	42	
9	0	0	0	0	444	587	512	252	0	41	
10	0	0	0	0	439	589	503	254	0	41	
11	0	0	0	0	442	588	494	252	0	40	
12	0	0	0	0	444	584	489	255	0	40	
13	0	0	0	0	447	592	474	252	0	39	
14	0	0	0	0	451	623	457	255	0	38	
15	0	0	0	0	451	629	449	252	0	38	
0	0	0	0	0	444	621	446	257	0	37	
1	0	0	0	0	461	632	449	254	0	37	
2	0	0	0	0	418	649	423	256	0	36	
3	0	0	0	0	419	639	438	255	0	36	
4	0	0	0	0	420	652	432	255	0	35	
5	0	0	0	0	422	669	432	250	0	35	
6	0	0	0	0	412	678	431	258	0	35	
7	0	0	0	0	399	668	432	255	9	35	
8	0	0	0	0	390	666	432	257	22	35	
9	0	0	0	0	393	667	439	255	21	35	
10	0	0	0	0	389	667	433	257	26	36	
11	0	0	0	0	384	664	435	252	29	36	
12	0	0	0	0	391	661	433	256	33	36	
13	0	0	0	0	405	650	435	258	39	36	
14	0	0	0	0	412	638	434	255	45	36	
15	0	0	0	0	411	624	433	253	48	36	
0	0	0	0	0	421	614	434	259	52	37	
1	0	0	0	0	428	591	438	257	60	37	
2	0	0	0	0	432	581	434	257	63	37	
3	0	0	0	0	435	560	450	255	63	37	
4	0	0	0	0	441	551	449	255	63	37	
5	0	0	0	0	454	538	457	255	63	36	
6	0	0	0	0	460	526	459	255	63	36	
7	0	0	0	0	467	524	465	252	63	35	
8	0	0	0	0	469	525	473	254	63	35	
9	0	0	0	0	469	525	481	251	63	34	
10	0	0	0	0	474	526	484	252	63	34	
11	0	0	0	0	479	528	492	250	63	34	
12	0	0	0	0	484	527	494	252	63	33	
13	0	0	0	0	492	525	494	250	63	33	
14	0	0	0	0	496	518	500	253	63	33	
15	0	0	0	0	502	520	502	250	63	32	
0	0	0	0	0	505	521	501	254	63	32	
1	0	0	0	0	507	519	505	246	63	32	
2	0	0	0	0	511	523	504	253	63	31	
3	0	0	0	0	515	524	502	248	60	31	
4	0	0	0	0	521	527	500	248	51	30	
5	0	0	0	0	530	525	499	246	45	30	
6	0	0	0	0	545	520	498	249	43	29	
7	0	0	0	0	569	519	500	249	39	29	
8	0	0	0	0	598	529	497	248	39	29	
9	0	0	0	0	628	542	491	251	39	29	
10	0	0	0	0	648	541	487	254	39	29	
11	0	0	0	0	657	543	490	251	44	29	
12	0	0	0	0	659	551	493	251	40	29	
13	0	0	0	0	659	557	491	251	35	29	
14	0	0	0	0	663	569	487	255	33	28	
15	0	0	0	0	666	585	488	252	35	27	
0	0	0	0	0	671	595	487	259	41	25	
1	0	0	0	0	676	600	486	253	38	23	
2	0	0	0	0	683	609	484	258	28	22	
3	0	0	0	0	691	621	480	255	27	20	
4	0	0	0	0	698	626	476	256	26	19	
5	0	0	0	0	699	628	474	255	27	18	
6	0	0	0	0	700	631	474	255	23	17	
7	0	0	0	0	704	627	472	257	27	17	
8	0	0	0	0	707	621	470	263	30	16	
9	0	0	0	0	702	620	468	252	31	16	
10	0	0	0	0	696	619	468	258	27	17	
11	0	0	0	0	685	614	473	258	22	17	
12	0	0	0	0	668	600	477	254	18	17	
13	0	0	0	0	668	598	476	251	13	16	
14	0	0	0	0	657	587	478	252	15	16	
15	0	0	0	0	647	573	481	249	17	15	
0	0	0	0	0	637	564	485	251	19	14	
1	0	0	0	0	620	550	489	247	22	13	
2	0	0	0	0	606	538	495	252	28	12	
3	0	0	0	0	591	525	497	248	32	11	
4	0	0	0	0	577	515	505	250	32	11	
5	0	0	0	0	556	505	512	248	26	12	
6	0	0	0	0	540	500	519	252	23	13	
7	0	0	0	0	526	498	527	251	22	16	
8	0	0	0	0	519	505	531	258	22	19	
9	0	0	0	0	513	508	535	249	22	22	
10	0	0	0	0	515	514	535	252	20	25	
11	0	0	0	0	513	523	532	251	15	27	
12	0	0	0	0	515	525	528	251	9	29	
13	0	0	0	0	512	523	524	251	0	32	
14	0	0	0	0	509	532	517	256	0	34	
15	0	0	0	0	499	547	511	252	0	36	
0	0	0	0	0	483	561	499	256	0	37	
1	0	0	0	0	466	567	491	256	0	39	
2	0	0	0	0	455	575	478	260	0	40	
3	0	0	0	0	455	583	461	258	0	41	
4	0	0	0	0	459	602	441	261	0	42	
5	0	0	0	0	465	622	422	259	0	42	
6	0	0	0	0	466	635	404	263	0	42	
7	0	0	0	0	468	650	388	259	2	42	
8	0	0	0	0	473	663	386	262	10	42	
9	0	0	0	0	459	679	376	259	21	41	
10	0	0	0	0	461	679	379	261	19	41	
11	0	0	0	0	464	685	379	257	20	41	
12	0	0	0	0	466	684	382	260	22	40	
13	0	0	0	0	466	670	389	257	24	40	
14	0	0	0	0	473	658	398	259	24	40	
15	0	0	0	0	473	650	405	254	24	40	
0	0	0	0	0	470	640	414	256	25	39	
1	0	0	0	0	471	627	428	253	27	39	
2	0	0	0	0	469	612	442	256	29	39	
3	0	0	0	0	471	596	455	252	29	39	
4	0	0	0	0	475	582	466	255	35	40	
5	0	0	0	0	477	562	478	255	49	40	
6	0	0	0	0	479	551	492	256	58	40	
7	0	0	0	0	483	547	501	253	63	41	
8	0	0	0	0	488	547	508	259	63	41	
9	0	0	0	0	498	550	510	254	62	42	
10	0	0	0	0	507	549	512	255	58	42	
11	0	0	0	0	521	545	514	253	48	43	
12	0	0	0	0	542	550	512	254	27	43	
